time (s)	magX	magY	magZ
5864.408576	-218.823517	84.548218	92.974281
5864.411907	-219.933960	85.366447	95.195206
5864.415237	-222.271790	86.301575	97.299240
5864.418575	-223.966705	86.710693	99.111046
5864.421962	-226.246033	88.054939	101.331963
5864.425242	-228.057861	88.931618	103.728233
5864.428575	-230.220337	89.866745	106.066048
5864.431904	-232.558167	90.509644	107.994736
5864.435237	-234.194611	91.269432	110.390999
5864.438588	-236.298676	92.146111	113.079483
5864.441910	-238.519592	93.198128	115.358849
5864.445232	-241.032715	93.841026	117.755112
5864.448572	-243.136780	94.659264	120.502045
5864.451902	-244.539459	95.769722	123.833427
5864.455239	-247.520172	96.646400	126.580353
5864.458570	-249.682648	97.581528	128.742844
5864.461899	-252.429596	98.165985	132.541779
5864.465229	-255.351837	99.159554	134.821152
5864.468565	-256.871429	99.744011	138.269440
5864.471901	-260.261261	100.386902	141.308594
5864.475256	-263.008209	101.029808	144.055527
5864.478567	-265.346008	102.666275	148.380478
5864.481903	-268.794281	103.659843	152.354767
5864.485235	-271.599670	104.068962	155.919937
5864.488568	-273.820587	104.887199	160.069550
5864.491910	-276.859741	106.348328	164.686722
5864.495237	-280.191132	107.517235	168.310349
5864.498560	-282.879608	108.160141	172.518402
5864.501898	-286.327881	109.212151	178.655167
5864.505231	-288.841034	110.088829	182.687897
5864.508562	-292.464661	111.433083	188.123322
5864.511898	-295.971375	112.368210	193.208069
5864.516525	-301.874359	115.056686	203.845123
5864.519488	-304.679749	115.991814	209.572754
5864.522772	-308.946228	117.394501	215.125076
5864.526162	-310.874908	118.388077	220.911163
5864.529491	-314.323212	119.206314	227.106369
5864.532738	-318.063721	121.018120	232.892456
5864.536085	-321.453522	122.713036	239.263000
5864.539417	-323.557587	123.472824	245.458206
5864.542318	-327.239655	124.817070	253.114548
5864.545650	-330.454132	126.395088	259.251312
5864.549007	-333.376404	128.031555	267.082977
5864.552337	-337.233795	129.375793	274.330231
5864.555675	-340.331390	130.720047	281.811218
5864.559051	-343.195221	131.655182	289.526001
5864.562358	-346.351288	133.876083	297.123901
5864.565223	-349.916412	134.460556	306.007599
5864.568586	-352.312683	134.694336	314.423737
5864.571898	-354.241394	137.032150	323.073639
5864.575228	-358.274109	137.908829	331.548218
5864.578559	-360.495056	138.785492	341.191711
5864.581898	-363.884857	139.720627	349.841614
5864.585223	-366.222687	140.538864	359.894226
5864.588551	-369.144958	141.883102	370.355927
5864.591887	-371.950317	142.116882	379.707184
5864.595222	-374.521942	143.461136	389.876678
5864.598558	-377.736420	144.045578	400.747528
5864.601884	-378.905304	144.396255	411.676788
5864.605223	-381.535339	144.688477	423.015198
5864.608555	-383.697845	145.272934	434.938049
5864.611902	-384.632965	145.448273	445.399750
5864.615220	-386.795441	146.558731	458.316162
5864.618553	-388.198151	146.617172	470.005249
5864.621906	-388.841003	146.967865	483.155487
5864.625234	-390.185272	146.441849	496.890106
5864.628553	-391.061981	146.208069	510.157227
5864.631888	-391.412659	146.383392	522.781433
5864.635222	-392.113983	146.675629	536.048523
5864.638556	-392.464661	146.149612	550.484558
5864.641881	-391.997101	145.039154	565.037415
5864.645219	-390.828186	144.922256	578.538269
5864.648588	-390.535950	144.571594	593.149658
5864.651884	-389.191742	143.519577	607.819458
5864.655226	-387.496826	142.233780	623.541199
5864.658551	-385.684967	141.883102	638.444763
5864.661876	-383.639404	140.889526	652.997681
5864.665216	-381.769135	139.369965	667.550598
5864.668549	-378.203979	138.142609	682.454102
5864.671881	-374.405029	136.155472	698.468201
5864.675214	-369.963165	135.512558	714.657532
5864.678548	-366.514893	133.466980	728.041504
5864.681879	-361.897736	131.362946	743.646423
5864.685217	-356.696075	129.317368	759.602051
5864.688550	-350.910004	127.447113	774.330261
5864.693195	-337.584442	122.303909	804.312683
5864.696525	-331.272369	119.264748	819.391602
5864.699466	-323.265350	117.160721	832.600281
5864.702750	-316.661041	114.121559	848.614258
5864.706081	-307.368225	110.205727	863.985413
5864.709465	-299.068970	106.932785	877.603210
5864.712808	-289.600830	102.841606	891.104065
5864.716106	-279.489777	100.270012	904.897156
5864.719392	-269.904755	95.945061	917.638245
5864.722306	-259.793701	91.094093	932.132690
5864.725637	-249.273529	86.710693	943.704834
5864.728965	-238.227356	81.859734	957.381104
5864.732303	-226.479828	77.476326	969.245483
5864.735636	-214.556976	72.216248	980.934570
5864.738987	-202.400360	67.540619	992.389832
5864.742334	-189.367035	62.046753	1001.624268
5864.745210	-175.690826	56.903564	1010.624878
5864.748536	-162.131500	51.818817	1023.249023
5864.751871	-148.396851	45.506721	1029.794800
5864.755216	-134.136169	39.954414	1039.496704
5864.758534	-119.583290	34.635887	1046.451782
5864.761870	-104.855049	28.674459	1054.166504
5864.765209	-89.600815	23.881941	1060.420288
5864.768547	-73.703682	17.978960	1064.102295
5864.771875	-59.735237	12.543541	1069.713013
5864.775206	-43.955002	6.348334	1074.739258
5864.778537	-28.817646	-0.489772	1078.012329
5864.781867	-13.154297	-5.925190	1081.051392
5864.785199	2.742842	-10.776154	1081.928101
5864.788542	18.523087	-16.386909	1082.395630
5864.791872	35.413795	-22.056108	1082.103394
5864.795204	50.609585	-27.666864	1083.097046
5864.798551	66.331390	-33.511398	1080.583862
5864.801869	82.170074	-37.661018	1078.129150
5864.805205	97.307426	-42.979546	1073.979492
5864.808534	112.678551	-48.473404	1070.998779
5864.811879	127.231445	-53.441261	1067.842773
5864.815201	142.953247	-58.642899	1061.063110
5864.818536	156.921692	-63.552307	1054.458740
5864.821867	171.357697	-67.760376	1046.451782
5864.825202	185.384583	-72.202225	1041.483887
5864.828571	199.177673	-76.702515	1032.424805
5864.831866	212.210999	-80.443016	1023.658142
5864.835202	224.893646	-84.417305	1014.540649
5864.838527	237.167145	-88.391586	1005.423157
5864.841881	249.089996	-92.482758	995.195251
5864.845194	260.194641	-95.931038	984.499695
5864.848532	271.416138	-98.794861	971.875549
5864.851864	281.936279	-102.184685	961.472290
5864.855196	291.988892	-105.282288	948.672729
5864.858529	301.749268	-108.263008	936.516052
5864.861861	310.340729	-111.360603	924.008789
5864.865187	319.984222	-114.399773	910.975525
5864.869452	336.465790	-119.835182	884.967285
5864.872800	343.946808	-121.997658	870.239014
5864.876042	350.142029	-124.043259	857.907043
5864.879371	357.272369	-126.264175	843.295715
5864.882709	363.642914	-127.842194	828.099976
5864.886075	369.019867	-130.004669	814.482178
5864.889422	374.396851	-132.693161	799.987732
5864.892782	379.072479	-133.452957	785.668640
5864.895640	384.157227	-134.914078	772.401550
5864.899006	388.715942	-136.842789	756.095276
5864.902285	392.456451	-137.836349	742.360657
5864.905624	395.846283	-138.362366	729.268860
5864.908951	398.184113	-139.531281	715.008240
5864.912276	400.755676	-140.700180	702.033325
5864.915636	403.093506	-141.518402	685.843933
5864.918522	405.548218	-142.219757	672.693787
5864.921856	407.243134	-142.804214	658.257812
5864.925189	408.061340	-141.985977	644.406250
5864.928522	409.230286	-142.278198	630.496216
5864.931855	410.282288	-142.511978	619.099426
5864.935183	410.925201	-142.687317	603.903625
5864.938527	410.808289	-142.453537	589.409119
5864.941865	410.808289	-142.336655	577.252502
5864.945192	410.866730	-142.219757	564.511414
5864.948519	410.925201	-141.693756	551.536560
5864.951887	410.866730	-141.459976	538.386353
5864.955185	409.405609	-141.401520	525.703735
5864.958532	408.002930	-140.875519	513.839294
5864.961850	407.009369	-139.940384	502.442444
5864.965185	405.898865	-139.297485	492.097595
5864.968514	403.853302	-138.537704	480.759216
5864.971852	402.859741	-137.953247	468.719482
5864.975185	400.814148	-137.193466	457.556366
5864.978513	398.885437	-136.608994	446.510193
5864.981847	396.956757	-135.498535	437.451202
5864.985189	394.969604	-134.621872	427.398560
5864.988521	392.748688	-133.569839	417.521332
5864.991847	390.819977	-132.985397	408.228516
5864.995180	388.540619	-131.758041	399.695496
5864.998512	386.378143	-130.413788	389.701355
5865.001853	384.157227	-130.004669	381.285187
5865.005185	381.702515	-128.952667	372.869080
5865.008512	378.780243	-128.543533	365.621857
5865.011846	375.799530	-126.965515	356.387482
5865.015182	372.760345	-126.556396	348.497375
5865.018512	371.182343	-125.270599	340.081238
5865.021843	368.201630	-124.452377	333.301575
5865.025177	365.688477	-124.043259	327.106354
5865.028516	362.473969	-123.049683	319.625366
5865.031849	359.259491	-122.406784	312.144348
5865.035183	356.512573	-121.179436	306.124481
5865.038516	354.876068	-119.776741	299.344849
5865.041842	350.960236	-119.367615	292.857391
5865.046541	345.466400	-117.322037	281.285187
5865.049387	342.544128	-116.503807	275.440674
5865.052768	339.738739	-115.568680	269.128571
5865.056101	336.933380	-114.691994	263.517822
5865.059382	335.121552	-113.756866	258.082397
5865.062690	332.140839	-112.529510	252.822311
5865.066023	329.101685	-111.652832	246.919327
5865.069390	326.296326	-109.899483	242.009933
5865.072260	323.900055	-109.022789	237.918762
5865.075634	321.270020	-107.853882	232.541779
5865.078958	318.932190	-107.210991	227.866165
5865.082298	315.776154	-106.275864	224.476318
5865.085629	313.263000	-105.574516	218.807129
5865.088970	310.983612	-104.580948	215.475739
5865.092266	308.996490	-103.879601	210.449448
5865.095167	306.424896	-103.002922	207.468735
5865.098503	303.561066	-101.308006	202.851547
5865.101855	301.866150	-100.723557	199.870834
5865.105173	299.177673	-100.197548	196.188782
5865.108502	297.891876	-99.905319	192.389832
5865.111838	294.969604	-98.035065	189.701340
5865.115168	293.040924	-97.567505	186.311523
5865.118505	291.112213	-96.866165	183.389252
5865.121838	289.534180	-96.106369	179.824081
5865.125169	287.605499	-95.054359	177.836945
5865.128503	285.384583	-94.236115	173.921097
5865.131861	283.397430	-94.119225	172.459961
5865.135165	281.877838	-92.716537	169.713028
5865.138500	280.007599	-92.833427	167.842773
5865.141856	278.488007	-92.190536	164.686722
5865.145171	276.033295	-92.073647	162.524261
5865.148495	274.163055	-91.196960	160.887787
5865.151831	272.818817	-90.612511	159.075974
5865.155166	271.416138	-90.086502	156.913513
5865.158498	269.838104	-89.794273	155.686157
5865.161836	268.493866	-88.800705	153.582123
5865.165166	267.149628	-88.683815	151.536530
5865.168501	265.104034	-88.333145	148.906494
5865.171831	264.694916	-87.573349	147.445358
5865.175177	263.175354	-87.514908	146.042664
5865.178491	261.188202	-87.164238	144.172424
5865.181828	260.194641	-86.346001	141.717712
5865.185163	258.675049	-85.761543	140.724136
5865.188495	257.856812	-85.703102	140.198135
5865.191831	256.863251	-85.001755	138.269440
5865.195157	255.694336	-84.709526	135.931625
5865.198498	254.233185	-84.651085	135.580948
5865.201828	253.648743	-83.657509	134.178253
5865.205173	252.655182	-82.956169	132.775574
5865.208495	252.012268	-83.014618	132.015778
5865.211860	250.142029	-82.956169	130.320862
5865.215159	250.083588	-82.839272	129.794861
5865.218504	249.616028	-82.254822	128.333725
5865.223123	247.453552	-82.021042	125.995911
5865.226015	247.453552	-81.962601	124.768555
5865.229374	246.810638	-80.443016	125.002335
5865.232696	245.466400	-80.501465	124.710106
5865.236114	245.758636	-80.735245	123.950325
5865.239417	244.998840	-80.092346	122.664520
5865.242682	243.713043	-80.267677	122.664520
5865.246001	243.888367	-79.391006	122.722969
5865.248922	243.596161	-79.098770	122.255409
5865.252248	243.829926	-79.040329	121.261833
5865.255619	243.596161	-78.748100	121.787842
5865.258917	242.894806	-78.748100	120.560486
5865.262271	242.661011	-78.163651	119.976028
5865.265618	242.777924	-77.520752	120.560486
5865.268933	243.187012	-77.754532	119.800697
5865.271835	242.953247	-77.988312	119.274689
5865.275156	242.602570	-77.988312	119.333138
5865.278492	242.544128	-78.105209	119.800697
5865.281816	242.953247	-77.754532	119.976028
5865.285155	243.303925	-77.637642	119.566917
5865.288488	243.420807	-77.462303	120.560486
5865.291818	243.654572	-77.579193	120.852722
5865.295154	244.005249	-77.637642	121.320282
5865.298485	244.297485	-77.170082	121.028053
5865.301815	244.648163	-76.994743	122.430740
5865.305167	244.998840	-77.462303	121.846291
5865.308486	245.057281	-77.111633	121.670944
5865.311817	245.758636	-77.403862	123.190536
5865.315151	246.343079	-76.936302	123.365868
5865.318489	246.576843	-77.286972	124.593224
5865.321814	247.161316	-77.579193	124.593224
5865.325145	247.628876	-77.754532	124.943886
5865.328484	248.154877	-77.696083	125.353012
5865.331815	249.265350	-77.929871	125.528343
5865.335208	249.616028	-78.397430	126.697250
5865.338487	250.492706	-78.046761	126.931030
5865.341818	250.375793	-78.514320	128.216827
5865.345150	250.668030	-79.040329	129.619522
5865.348511	252.070709	-78.514320	129.268845
5865.351813	252.596741	-78.631210	130.671539
5865.355151	253.765625	-78.280540	131.022217
5865.358475	254.233185	-78.923439	132.600235
5865.361825	255.811218	-79.040329	133.184677
5865.365148	256.629456	-79.274109	133.944473
5865.368480	258.499725	-79.215668	135.873169
5865.371810	258.967285	-79.040329	137.042084
5865.375145	260.253082	-79.858566	137.977203
5865.378479	261.012878	-79.975456	139.847458
5865.381818	262.415558	-80.209236	140.256577
5865.385144	264.052002	-80.150787	142.419052
5865.388478	265.396271	-80.676804	144.815308
5865.391833	266.974274	-80.326126	146.218002
5865.396513	270.071899	-80.209236	149.958496
5865.399392	271.766815	-80.852135	152.413208
5865.402660	273.578613	-80.384567	153.874329
5865.406009	274.572174	-80.910583	156.562820
5865.409319	276.091766	-81.495033	158.842194
5865.412676	278.604919	-81.904152	160.654007
5865.416014	280.066040	-82.021042	162.699585
5865.419404	282.345398	-82.430161	165.972534
5865.422763	284.215668	-82.780830	168.661026
5865.425575	285.852142	-83.540619	170.531265
5865.428902	288.014587	-83.365288	172.869080
5865.432230	289.767975	-83.657509	176.668030
5865.435590	291.755096	-84.534195	178.947403
5865.438895	293.508484	-84.767975	182.512573
5865.442224	295.787842	-85.293976	185.259491
5865.445561	298.242523	-85.410873	188.473984
5865.448477	300.463440	-85.644653	190.811798
5865.451800	302.742828	-85.995331	194.961426
5865.455134	305.314453	-86.112221	197.649902
5865.458466	306.775574	-86.462891	201.974869
5865.461808	309.990051	-86.930458	204.838684
5865.465139	311.743408	-87.281128	208.403854
5865.468474	313.789001	-87.924019	211.969025
5865.471804	316.769714	-88.274696	216.995316
5865.475138	319.633545	-88.976036	220.911163
5865.478507	321.562225	-89.443604	225.411453
5865.481800	324.016937	-90.144943	228.918182
5865.485132	327.699005	-89.969612	232.717117
5865.488467	329.978363	-90.320282	236.808289
5865.491827	332.374634	-90.378723	242.185272
5865.495134	334.887787	-90.320282	246.977798
5865.498467	337.576263	-90.787849	250.367630
5865.501797	340.440094	-91.138519	255.569260
5865.505132	343.420807	-91.547630	260.361786
5865.508461	346.109283	-92.307426	267.082977
5865.511800	348.680908	-92.482758	272.401520
5865.515131	352.187592	-92.424316	277.895386
5865.518468	355.518982	-92.774986	283.915253
5865.521824	358.382812	-92.833427	290.227356
5865.525133	360.662201	-93.125656	296.188782
5865.528485	363.993561	-93.125656	303.202209
5865.531794	367.091187	-93.242554	309.280518
5865.535140	370.013458	-93.242554	316.878418
5865.538464	373.520142	-93.885445	323.365875
5865.541797	376.267090	-94.177673	331.255981
5865.545130	379.423126	-94.060783	339.146118
5865.548462	382.403839	-94.002335	346.977783
5865.551798	385.326111	-94.119225	355.043243
5865.555130	388.540619	-94.002335	363.225586
5865.558463	391.930450	-93.943893	370.589722
5865.561794	393.157776	-93.943893	379.473419
5865.565149	396.547607	-94.119225	387.772644
5865.568456	399.294556	-93.768555	396.773224
5865.573138	404.963745	-93.417885	415.767975
5865.576048	407.535339	-93.417885	424.943909
5865.579414	410.340729	-92.774986	434.821167
5865.582719	412.444763	-92.716537	445.399750
5865.585981	414.724121	-92.424316	455.452393
5865.589327	416.711273	-91.606079	465.329620
5865.592629	418.932190	-91.781418	475.849792
5865.595993	421.036224	-90.963181	488.240234
5865.599340	422.205139	-90.203392	498.409698
5865.602244	424.075409	-89.911163	509.923431
5865.605573	425.185852	-88.917595	520.618958
5865.608933	426.588531	-87.807129	532.191162
5865.612216	427.874329	-86.988899	544.406250
5865.615543	429.803040	-86.229111	555.452393
5865.618871	431.147278	-85.177086	567.258362
5865.622228	431.264160	-83.423729	578.655212
5865.625118	431.322601	-82.956169	591.922302
5865.628451	431.673279	-81.728813	604.488037
5865.631787	431.322601	-79.975456	616.586243
5865.635123	431.556396	-78.397430	630.379333
5865.638454	431.614807	-76.293396	642.828186
5865.641788	430.796631	-74.130920	655.101746
5865.645118	429.861481	-72.552895	668.251892
5865.648451	428.224976	-70.390419	682.161926
5865.651796	426.237854	-68.461723	694.201660
5865.655114	424.718262	-66.240791	708.754578
5865.658448	421.737579	-63.552307	721.554077
5865.661781	419.925781	-60.571602	734.996521
5865.665120	416.711273	-58.233780	748.263611
5865.668446	413.555237	-55.136177	762.115173
5865.671784	409.931610	-52.213913	775.616028
5865.675116	405.314453	-49.233200	789.000061
5865.678449	401.457031	-45.668030	801.682678
5865.681781	397.248962	-41.869080	815.008240
5865.685117	391.755096	-38.479256	828.450623
5865.688449	385.384583	-34.621857	842.594421
5865.691785	378.897125	-30.998247	855.160217
5865.695134	372.117462	-27.433081	868.018127
5865.698443	365.220917	-22.815897	879.882568
5865.701779	357.564575	-18.900059	891.337830
5865.705109	349.499115	-14.224430	903.669800
5865.708442	341.492096	-10.074809	915.826477
5865.711777	333.251312	-5.691409	925.820618
5865.715107	323.607819	-1.191116	936.925171
5865.718447	313.789001	3.776739	946.510315
5865.721773	304.262421	9.855055	957.439575
5865.725115	293.450012	14.589129	967.550598
5865.728440	283.397430	19.147865	976.492737
5865.731807	271.825256	24.291058	984.265991
5865.735110	261.012878	29.200468	991.220947
5865.738451	249.849792	33.934540	1000.689087
5865.741778	237.868500	40.071304	1006.767456
5865.745109	225.302734	45.156052	1011.735291
5865.749737	199.528351	55.968437	1024.827026
5865.752644	186.027466	61.812973	1029.502563
5865.755984	172.877258	67.482178	1033.243042
5865.759380	159.376404	72.683807	1035.697876
5865.762708	146.050842	78.879013	1039.905884
5865.765964	131.264175	84.781998	1040.548828
5865.769303	117.880188	90.626534	1040.957886
5865.772618	103.677971	96.354179	1041.016235
5865.775565	89.417305	101.497368	1041.893066
5865.778861	74.104614	106.991234	1041.366943
5865.782193	59.785507	112.777321	1039.613647
5865.785555	45.817066	118.680305	1038.093994
5865.788887	31.030392	124.466385	1034.470459
5865.792240	15.717710	129.901810	1032.191040
5865.795533	1.281708	135.395676	1026.171265
5865.798441	-12.745178	140.889526	1022.956848
5865.801771	-27.005844	146.909409	1015.884827
5865.805100	-41.967850	151.351257	1009.806580
5865.808435	-55.760956	156.962006	1004.195862
5865.811770	-70.722969	161.812973	997.883789
5865.815098	-84.282288	166.313263	989.467590
5865.818468	-97.841606	170.462891	981.518982
5865.821764	-111.459373	174.787842	972.459961
5865.825099	-124.726479	179.580353	962.933411
5865.828430	-137.350677	183.788422	951.127380
5865.831766	-150.150208	187.996490	942.185303
5865.835100	-162.657501	191.912338	931.255981
5865.838432	-174.638794	195.302155	921.378784
5865.841761	-186.269440	198.341309	909.163635
5865.845100	-197.023376	201.964935	895.838135
5865.848447	-208.069550	204.711853	885.259521
5865.851787	-218.297485	206.815903	872.693787
5865.855092	-227.940979	209.562820	860.244934
5865.858429	-237.292236	212.017532	848.789673
5865.861768	-246.351288	213.887787	835.697937
5865.865090	-255.527191	215.699600	822.021667
5865.868426	-263.826416	217.336060	809.865051
5865.871764	-271.073669	219.030975	796.130310
