time (s)	det(V)
3492.302022	1.618545	
3492.303516	1.618416	
3492.305285	1.618529	
3492.306797	1.618537	
3492.308540	1.618440	
3492.310063	1.618408	
3492.311796	1.618477	
3492.313332	1.618545	
3492.315033	1.618513	
3492.316572	1.618497	
3492.318276	1.618493	
3492.319833	1.618448	
3492.321508	1.617627	
3492.323071	1.468575	
3492.324736	1.207681	
3492.326312	1.015639	
3492.327959	0.810883	
3492.329560	0.596915	
3492.331209	0.406794	
3492.332820	0.228650	
3492.334440	0.023129	
3492.336098	-0.189240	
3492.337689	-0.370281	
3492.339349	-0.570227	
3492.340922	-0.780650	
3492.342613	-0.994062	
3492.344188	-1.189242	
3492.345864	-1.397394	
3492.347418	-1.576972	
3492.349108	-1.639375	
3492.350663	-1.639613	
3492.352386	-1.639556	
3492.353893	-1.639552	
3492.355633	-1.639697	
3492.357113	-1.639669	
3492.358914	-1.639645	
3492.360393	-1.639681	
3492.362186	-1.639613	
3492.363677	-1.639762	
3492.365173	-1.639685	
3492.366763	-1.639685	
3492.368302	-1.639729	
3492.369894	-1.639758	
3492.371390	-1.639681	
3492.373049	-1.639737	
3492.374540	-1.639713	
3492.376178	-1.639649	
3492.377707	-1.639774	
3492.379334	-1.639846	
3492.380829	-1.639685	
3492.382465	-1.639738	
3492.383958	-1.639794	
3492.385598	-1.639701	
3492.387082	-1.639842	
3492.388733	-1.639794	
3492.390220	-1.639818	
3492.391815	-1.639750	
3492.393354	-1.639786	
3492.394888	-1.639766	
3492.396487	-1.639858	
3492.398073	-1.639681	
3492.399668	-1.639834	
3492.401218	-1.639677	
3492.402833	-1.639806	
3492.404339	-1.639722	
3492.406045	-1.639854	
3492.407522	-1.639742	
3492.409234	-1.639907	
3492.410710	-1.639746	
3492.412423	-1.639919	
3492.413905	-1.639798	
3492.415621	-1.639838	
3492.417124	-1.639854	
3492.418859	-1.639778	
3492.420349	-1.639806	
3492.422064	-1.639754	
3492.423538	-1.639883	
3492.425279	-1.639758	
3492.426781	-1.639838	
3492.428519	-1.639766	
3492.430038	-1.639782	
3492.431762	-1.639794	
3492.433305	-1.639754	
3492.435015	-1.639709	
3492.436553	-1.639822	
3492.438238	-1.639649	
3492.439784	-1.639790	
3492.441470	-1.639717	
3492.443038	-1.639866	
3492.444703	-1.639621	
3492.446305	-1.639810	
3492.447938	-1.639697	
3492.449560	-1.639786	
3492.451205	-1.639673	
3492.452811	-1.639802	
3492.454440	-1.639629	
3492.456105	-1.639770	
3492.457692	-1.639661	
3492.459356	-1.639754	
3492.460938	-1.639665	
3492.462613	-1.639774	
3492.464180	-1.639568	
3492.465847	-1.639734	
3492.467405	-1.639548	
3492.469103	-1.639774	
3492.470661	-1.639721	
3492.472378	-1.639625	
3492.473893	-1.639601	
3492.475644	-1.639576	
3492.477125	-1.639633	
3492.478911	-1.639673	
3492.480390	-1.639677	
3492.482158	-1.639677	
3492.483653	-1.639568	
3492.485449	-1.639677	
3492.486927	-1.639617	
3492.488718	-1.639585	
3492.490196	-1.639637	
3492.491935	-1.639653	
3492.493451	-1.639653	
3492.495210	-1.639572	
3492.496733	-1.639721	
3492.498494	-1.639649	
3492.500018	-1.639605	
3492.501741	-1.639673	
3492.503272	-1.639693	
3492.504974	-1.639480	
3492.506531	-1.639657	
3492.508199	-1.639528	
3492.509761	-1.639665	
3492.511413	-1.639524	
3492.512997	-1.639649	
3492.514647	-1.639508	
3492.516240	-1.639701	
3492.517874	-1.639520	
3492.519482	-1.639681	
3492.521102	-1.639520	
3492.522776	-1.639669	
3492.524361	-1.639572	
3492.526033	-1.639661	
3492.527627	-1.639580	
3492.529293	-1.639653	
3492.530886	-1.639411	
3492.532572	-1.615423	
3492.534140	-1.530244	
3492.535839	-1.467764	
3492.537392	-1.402776	
3492.539091	-1.352269	
3492.540647	-1.306922	
3492.542368	-1.258292	
3492.543881	-1.209445	
3492.545617	-1.172295	
3492.547108	-1.122239	
3492.548889	-1.064457	
3492.550370	-1.018422	
3492.552151	-0.968849	
3492.553632	-0.922535	
3492.555409	-0.874288	
3492.556894	-0.848128	
3492.558656	-0.805323	
3492.560184	-0.771836	
3492.561679	-0.740770	
3492.563260	-0.712531	
3492.564768	-0.672977	
3492.566417	-0.634563	
3492.567908	-0.605499	
3492.569550	-0.577808	
3492.571078	-0.538097	
3492.572720	-0.510728	
3492.574216	-0.493330	
3492.575855	-0.474268	
3492.577346	-0.446742	
3492.578969	-0.439431	
3492.580462	-0.420973	
3492.582098	-0.391639	
3492.583584	-0.376384	
3492.585200	-0.356081	
3492.586715	-0.330807	
3492.588272	-0.308700	
3492.589825	-0.298323	
3492.591443	-0.295415	
3492.593042	-0.274516	
3492.594617	-0.266153	
3492.596227	-0.259603	
3492.597768	-0.239240	
3492.599432	-0.220637	
3492.600926	-0.212850	
3492.602625	-0.204201	
3492.604097	-0.182618	
3492.605815	-0.178493	
3492.607288	-0.178928	
3492.608991	-0.170130	
3492.610494	-0.159797	
3492.612213	-0.165969	
3492.613714	-0.162802	
3492.615437	-0.147124	
3492.616921	-0.140582	
3492.618704	-0.134052	
3492.620178	-0.121693	
3492.621923	-0.113222	
3492.623428	-0.117862	
3492.625164	-0.117592	
3492.626697	-0.114680	
3492.628436	-0.116529	
3492.629972	-0.122011	
3492.631695	-0.107369	
3492.633220	-0.100178	
3492.634921	-0.098901	
3492.636476	-0.091876	
3492.638171	-0.087175	
3492.639736	-0.087303	
3492.641382	-0.092383	
3492.642985	-0.089487	
3492.644646	-0.095179	
3492.646233	-0.096669	
3492.647866	-0.092266	
3492.649461	-0.078183	
3492.651097	-0.078050	
3492.652737	-0.074800	
3492.654328	-0.067009	
3492.655996	-0.065974	
3492.657589	-0.073817	
3492.659256	-0.070070	
3492.660840	-0.069438	
3492.662538	-0.075791	
3492.664114	-0.073784	
3492.665834	-0.068624	
3492.667377	-0.058142	
3492.669077	-0.053844	
3492.670626	-0.047274	
3492.672343	-0.038710	
3492.673865	-0.046033	
3492.675620	-0.050380	
3492.677124	-0.049965	
3492.678892	-0.056205	
3492.680370	-0.053631	
3492.682151	-0.035245	
3492.683632	-0.026867	
3492.685407	-0.021509	
3492.686886	-0.015543	
3492.688665	-0.010669	
3492.690159	-0.017626	
3492.691930	-0.015704	
3492.693434	-0.010971	
3492.695148	-0.020381	
3492.696660	-0.023036	
3492.698364	-0.006326	
3492.699898	0.000272	
3492.701596	-0.000135	
3492.703149	0.009465	
3492.704837	0.015745	
3492.706410	0.010846	
3492.708113	0.005735	
3492.709684	0.007640	
3492.711354	0.007809	
3492.712934	0.002826	
3492.714582	0.009485	
3492.716193	0.020204	
3492.717826	0.021570	
3492.719449	0.027818	
3492.721093	0.036217	
3492.722727	0.038996	
3492.724333	0.025961	
3492.725996	0.025473	
3492.727598	0.029256	
3492.729272	0.016696	
3492.730848	0.021566	
3492.732549	0.027858	
3492.734099	0.037458	
3492.735793	0.034396	
3492.737351	0.037059	
3492.739061	0.038509	
3492.740629	0.031214	
3492.742345	0.031238	
3492.743857	0.029163	
3492.745599	0.020869	
3492.747077	0.026420	
3492.748863	0.032011	
3492.750352	0.038118	
3492.752115	0.029018	
3492.753601	0.039504	
3492.755393	0.041228	
3492.756894	0.031995	
3492.758389	0.021054	
3492.759956	0.030553	
3492.761485	0.017171	
3492.763087	0.011431	
3492.764586	0.020108	
3492.766220	0.031322	
3492.767744	0.020502	
3492.769395	0.022005	
3492.770881	0.032704	
3492.772544	0.034606	
3492.774020	0.013235	
3492.775670	0.002443	
3492.777147	0.007684	
3492.778774	0.000147	
3492.780257	-0.001178	
3492.781869	0.003229	
3492.783386	0.008873	
3492.784934	0.002959	
3492.786509	0.009803	
3492.788108	0.014726	
3492.789695	0.006657	
3492.791259	0.000639	
3492.792891	0.002589	
3492.794423	-0.004526	
3492.796076	-0.014129	
3492.797555	-0.012651	
3492.799250	-0.001774	
3492.800727	-0.001456	
3492.802437	-0.006729	
3492.803919	0.007499	
3492.805620	0.009400	
3492.807120	-0.005295	
3492.808831	-0.005504	
3492.810319	-0.002640	
3492.812021	-0.012566	
3492.813496	-0.019076	
3492.815242	-0.008723	
3492.816746	-0.007849	
3492.818462	-0.007124	
3492.819985	0.000824	
3492.821707	0.007995	
3492.823246	0.000115	
3492.824951	-0.005992	
3492.826497	-0.001065	
3492.828179	-0.008973	
3492.829739	-0.015781	
3492.831411	-0.007031	
3492.832980	-0.001835	
3492.834635	-0.001202	
3492.836237	0.003217	
3492.837874	0.011600	
3492.839490	0.005529	
3492.841134	0.000691	
3492.842754	0.002387	
3492.844375	-0.003961	
3492.846032	-0.010459	
3492.847617	-0.004381	
3492.849298	0.006564	
3492.850863	0.004172	
3492.852555	0.002758	
3492.854118	0.018045	
3492.855812	0.015459	
3492.857381	0.004615	
3492.859100	0.002492	
3492.860642	0.005167	
3492.862370	0.000228	
3492.863905	-0.004763	
3492.865621	0.005412	
3492.867131	0.006049	
3492.868872	0.001005	
3492.870361	0.012659	
3492.872130	0.016708	
3492.873618	0.011725	
3492.875400	0.004881	
3492.876886	0.004329	
3492.878644	-0.008389	
3492.880132	-0.010967	
3492.881876	-0.000010	
3492.883385	0.003213	
3492.885116	0.003096	
3492.886648	0.008248	
3492.888369	0.012091	
3492.889895	0.004417	
3492.891623	-0.001391	
3492.893165	-0.002858	
3492.894874	-0.008215	
3492.896426	-0.015035	
3492.898089	-0.008409	
3492.899655	-0.005706	
3492.901295	-0.009162	
3492.902905	-0.004755	
3492.904531	0.006327	
3492.906142	-0.002423	
3492.907760	-0.011869	
3492.909397	-0.010878	
3492.910998	-0.017807	
3492.912651	-0.027559	
3492.914224	-0.023140	
3492.915900	-0.019374	
3492.917471	-0.020691	
3492.919172	-0.021686	
3492.920746	-0.012804	
3492.922452	-0.010181	
3492.924020	-0.027249	
3492.925734	-0.033046	
3492.927282	-0.027817	
3492.928997	-0.042891	
3492.930504	-0.043342	
3492.932248	-0.028228	
3492.933731	-0.031862	
3492.935499	-0.030258	
3492.936991	-0.025219	
3492.938793	-0.019648	
3492.940268	-0.031987	
3492.942051	-0.035467	
3492.943525	-0.036108	
3492.945284	-0.041409	
3492.946819	-0.046247	
3492.948303	-0.041135	
3492.949884	-0.034851	
3492.951401	-0.033360	
3492.953026	-0.033739	
3492.954521	-0.023479	
3492.956170	-0.031696	
3492.957695	-0.036740	
3492.959346	-0.033562	
3492.960829	-0.036398	
3492.962463	-0.041066	
3492.963932	-0.039906	
3492.965576	-0.032051	
3492.967054	-0.032853	
3492.968675	-0.028095	
3492.970180	-0.022133	
3492.971758	-0.014773	
3492.973294	-0.021581	
3492.974833	-0.027165	
3492.976400	-0.021364	
3492.978005	-0.027866	
3492.979607	-0.031407	
3492.981171	-0.025058	
3492.982802	-0.017291	
3492.984318	-0.014967	
3492.986000	-0.013396	
3492.987490	-0.005069	
3492.989206	-0.001774	
3492.990682	-0.006640	
3492.992404	-0.009714	
3492.993883	-0.008953	
3492.995576	-0.012191	
3492.997057	-0.018818	
3492.998756	-0.003071	
3493.000239	-0.000892	
3493.001916	-0.002354	
3493.003420	0.006641	
3493.005130	0.014770	
3493.006654	0.010665	
3493.008412	0.004635	
3493.009944	0.010053	
3493.011664	0.004933	
3493.013204	0.001634	
3493.014912	0.008627	
3493.016468	0.018412	
3493.018159	0.021937	
3493.019721	0.019632	
3493.021387	0.034453	
3493.022961	0.031097	
3493.024627	0.024217	
3493.026215	0.036801	
3493.027856	0.025570	
3493.029462	0.016953	
3493.031077	0.020059	
3493.032698	0.029570	
3493.034288	0.031423	
3493.035974	0.039387	
3493.037565	0.047242	
3493.039226	0.047287	
3493.040821	0.039367	
3493.042514	0.030452	
3493.044061	0.040624	
3493.045789	0.032217	
3493.047333	0.037562	
3493.049030	0.047126	
3493.050572	0.038364	
3493.052287	0.036020	
3493.053800	0.056278	
3493.055573	0.063638	
3493.057051	0.045111	
3493.058832	0.050892	
3493.060311	0.050312	
3493.062086	0.041365	
3493.063570	0.041772	
3493.065340	0.055694	
3493.066825	0.062965	
3493.068595	0.069446	
3493.070103	0.076637	
3493.071849	0.083006	
3493.073360	0.082043	
3493.075094	0.081068	
3493.076619	0.090519	
3493.078347	0.093842	
3493.079877	0.094752	
3493.081600	0.102519	
3493.083154	0.108433	
3493.084858	0.122475	
3493.086416	0.121291	
3493.088110	0.148075	
3493.089675	0.153300	
3493.091364	0.150690	
3493.092947	0.163383	
3493.094580	0.178050	
3493.096181	0.179649	
3493.097801	0.187674	
3493.099422	0.214184	
3493.101056	0.225016	
3493.102705	0.238878	
3493.104308	0.260598	
3493.105967	0.281368	
3493.107552	0.285405	
3493.109227	0.303359	
3493.110793	0.319376	
3493.112481	0.329108	
3493.114051	0.342671	
3493.115719	0.372968	
3493.117260	0.393158	
3493.118958	0.415572	
3493.120477	0.439524	
3493.122229	0.467932	
3493.123712	0.479844	
3493.125495	0.505818	
3493.126979	0.527318	
3493.128747	0.551081	
3493.130232	0.570799	
3493.131997	0.603803	
3493.133485	0.635474	
3493.135254	0.662186	
3493.136742	0.704946	
3493.138513	0.740694	
3493.140023	0.773657	
3493.141762	0.797888	
3493.143287	0.835291	
3493.144799	0.854598	
3493.146410	0.880915	
3493.147896	0.924043	
3493.149542	0.971855	
3493.151053	1.001934	
3493.152711	1.041891	
3493.154206	1.086936	
3493.155854	1.132282	
3493.157326	1.161597	
3493.158962	1.199237	
3493.160442	1.234300	
3493.162081	1.272198	
3493.163580	1.302950	
3493.165192	1.359939	
3493.166725	1.411232	
3493.168283	1.449320	
3493.169832	1.509515	
3493.171336	1.548932	
3493.172975	1.584828	
3493.174567	1.608672	
3493.176161	1.618312	
3493.177704	1.618497	
3493.179355	1.618517	
3493.180842	1.618436	
3493.182552	1.618428	
3493.184027	1.618440	
3493.185759	1.618420	
3493.187234	1.618449	
3493.188944	1.618384	
3493.190424	1.618513	
3493.192130	1.618444	
3493.193613	1.618424	
3493.195323	1.618517	
3493.196805	1.618380	
3493.198483	1.618557	
3493.199999	1.618517	
3493.201735	1.618505	
3493.203261	1.618376	
3493.204981	1.618557	
3493.206521	1.618441	
3493.208217	1.618634	
3493.209764	1.618328	
3493.211436	1.618517	
3493.212997	1.618513	
3493.214675	1.618549	
3493.216270	1.618408	
3493.217925	1.618505	
3493.219507	1.618432	
3493.221146	1.618569	
3493.222758	1.618461	
3493.224395	1.618569	
3493.226029	1.618537	
3493.227624	1.618537	
3493.229306	1.618481	
3493.230907	1.618614	
3493.232578	1.618404	
3493.234182	1.618481	
3493.235844	1.618404	
3493.237424	1.618501	
3493.239120	1.618505	
3493.240664	1.618513	
3493.242369	1.618545	
3493.243901	1.618565	
3493.245638	1.618441	
3493.247162	1.618577	
3493.248905	1.618549	
3493.250401	1.618525	
3493.252189	1.618517	
3493.253669	1.618630	
3493.255453	1.618557	
3493.256938	1.618662	
3493.258708	1.618585	
3493.260190	1.618545	
3493.261963	1.618585	
3493.263451	1.618549	
3493.265218	1.618670	
3493.266722	1.618557	
3493.268476	1.618513	
3493.269989	1.618505	
3493.271729	1.618610	
3493.273257	1.618557	
3493.274974	1.618590	
3493.276512	1.618453	
3493.278230	1.618686	
3493.279786	1.618497	
3493.281471	1.618610	
3493.283040	1.618581	
3493.284739	1.618658	
3493.286312	1.618485	
3493.287988	1.618702	
3493.289576	1.618493	
3493.291217	1.618577	
3493.292823	1.618509	
3493.294465	1.618654	
3493.296082	1.618521	
3493.297725	1.618569	
3493.299361	1.618408	
3493.300981	1.618658	
3493.302645	1.618533	
3493.304226	1.618577	
3493.305907	1.618436	
3493.307494	1.618569	
3493.309175	1.618537	
3493.310770	1.618646	
3493.312451	1.618630	
3493.314019	1.618505	
3493.315735	1.618497	
3493.317277	1.618565	
3493.318995	1.618392	
3493.320547	1.618549	
3493.322259	1.618594	
3493.323758	1.618457	
3493.325516	1.618445	
3493.327010	1.618396	
3493.328789	1.618549	
3493.330270	1.618408	
3493.332066	1.618517	
3493.333546	1.618477	
3493.335327	1.618461	
3493.336806	1.618545	
3493.338574	1.618706	
3493.340114	1.618465	
3493.341605	1.618473	
3493.343179	1.618493	
3493.344697	1.618456	
3493.346284	1.618501	
3493.347775	1.618416	
3493.349403	1.618448	
3493.350933	1.618505	
3493.352562	1.618352	
3493.354048	1.618396	
3493.355708	1.618460	
3493.357206	1.617357	
3493.358849	1.447756	
3493.360343	1.239315	
3493.361976	1.035260	
3493.363458	0.845954	
3493.365060	0.640723	
3493.366595	0.444435	
3493.368141	0.239659	
3493.369744	0.032048	
3493.371243	-0.165626	
3493.372883	-0.380662	
3493.374444	-0.581973	
3493.376058	-0.794971	
3493.377592	-1.005470	
3493.379274	-1.231193	
3493.380748	-1.433488	
3493.382469	-1.611938	
3493.383939	-1.639641	
3493.385646	-1.639653	
3493.387132	-1.639568	
3493.388835	-1.639621	
3493.390323	-1.639597	
3493.392030	-1.639605	
3493.393522	-1.639673	
3493.395220	-1.639629	
3493.396717	-1.639693	
3493.398380	-1.639621	
3493.399906	-1.639786	
3493.401622	-1.639568	
3493.403159	-1.639697	
3493.404856	-1.639665	
3493.406409	-1.639705	
3493.408094	-1.639701	
3493.409665	-1.639774	
3493.411327	-1.639621	
3493.412896	-1.639774	
3493.414546	-1.639637	
3493.416129	-1.639770	
3493.417780	-1.639592	
3493.419394	-1.639722	
3493.421014	-1.639633	
3493.422656	-1.639874	
3493.424259	-1.639665	
3493.425926	-1.639810	
3493.427525	-1.639681	
3493.429180	-1.639734	
3493.430766	-1.639649	
3493.432467	-1.639891	
3493.434017	-1.639689	
3493.435727	-1.639729	
3493.437272	-1.639766	
3493.438981	-1.639742	
3493.440521	-1.639738	
3493.442236	-1.639750	
3493.443731	-1.639838	
3493.445483	-1.639758	
3493.446971	-1.639766	
3493.448779	-1.639746	
3493.450266	-1.639709	
3493.452038	-1.639762	
3493.453522	-1.639802	
3493.455295	-1.639798	
3493.456774	-1.639814	
3493.458551	-1.639750	
3493.460053	-1.639834	
3493.461801	-1.639742	
3493.463309	-1.639814	
3493.465048	-1.639613	
3493.466570	-1.639850	
3493.468293	-1.639697	
3493.469824	-1.639782	
3493.471541	-1.639580	
3493.473106	-1.639879	
3493.474806	-1.639605	
3493.476362	-1.639790	
3493.478050	-1.639742	
3493.479624	-1.639830	
3493.481316	-1.639677	
3493.482902	-1.639866	
3493.484555	-1.639633	
3493.486158	-1.639842	
3493.487769	-1.639645	
3493.489390	-1.639717	
3493.491024	-1.639605	
3493.492644	-1.639798	
3493.494266	-1.639564	
3493.495939	-1.639725	
3493.497528	-1.639669	
3493.499206	-1.639822	
3493.500782	-1.639657	
3493.502484	-1.639794	
3493.504052	-1.639633	
3493.505749	-1.639705	
3493.507307	-1.639613	
3493.509028	-1.639822	
3493.510565	-1.639661	
3493.512281	-1.639742	
3493.513800	-1.639673	
3493.515550	-1.639649	
3493.517047	-1.639681	
3493.518799	-1.639609	
3493.520286	-1.639625	
3493.522063	-1.639705	
3493.523561	-1.639645	
3493.525367	-1.639580	
3493.526856	-1.639729	
3493.528631	-1.639649	
3493.530115	-1.639597	
3493.531897	-1.639584	
3493.533391	-1.639645	
3493.535147	-1.639617	
3493.536680	-1.639661	
3493.538166	-1.639661	
3493.539762	-1.639609	
3493.541258	-1.639645	
3493.542927	-1.639750	
3493.544430	-1.639625	
3493.546050	-1.639593	
3493.547579	-1.639729	
3493.549197	-1.639729	
3493.550688	-1.639665	
3493.552335	-1.639625	
3493.553820	-1.639709	
3493.555476	-1.639645	
3493.556962	-1.639742	
3493.558614	-1.639580	
3493.560096	-1.639693	
3493.561694	-1.639633	
3493.563236	-1.639645	
3493.564792	-1.637711	
3493.566376	-1.573593	
3493.567979	-1.495266	
3493.569583	-1.433314	
3493.571148	-1.373715	
3493.572760	-1.319631	
3493.574294	-1.274063	
3493.575984	-1.226291	
3493.577463	-1.181085	
3493.579160	-1.142131	
3493.580639	-1.100845	
3493.582361	-1.047913	
3493.583839	-1.001128	
3493.585539	-0.966275	
3493.587038	-0.919538	
3493.588761	-0.874167	
3493.590246	-0.850066	
3493.591942	-0.819942	
3493.593427	-0.786898	
3493.595169	-0.759175	
3493.596673	-0.735960	
3493.598425	-0.700229	
3493.599939	-0.665915	
3493.601660	-0.638402	
3493.603199	-0.611090	
3493.604912	-0.580487	
3493.606463	-0.562488	
3493.608152	-0.548635	
3493.609703	-0.527446	
3493.611390	-0.509298	
3493.612960	-0.499614	
3493.614637	-0.475142	
3493.616230	-0.451178	
3493.617888	-0.440966	
3493.619459	-0.424909	
3493.621095	-0.406230	
3493.622689	-0.391212	
3493.624311	-0.385468	
3493.625978	-0.373955	
3493.627558	-0.360512	
3493.629229	-0.358703	
3493.630805	-0.349974	
3493.632497	-0.326582	
3493.634066	-0.316108	
3493.635747	-0.310243	
3493.637312	-0.289525	
3493.639014	-0.277335	
3493.640566	-0.280103	
3493.642279	-0.268981	
3493.643817	-0.259740	
3493.645548	-0.257770	
3493.647048	-0.256102	
3493.648809	-0.244601	
3493.650296	-0.237528	
3493.652081	-0.219561	
3493.653557	-0.209386	
3493.655356	-0.195935	
3493.656840	-0.201067	
3493.658620	-0.195218	
3493.660101	-0.187580	
3493.661890	-0.189204	
3493.663379	-0.188624	
