time (s)	magX	magY	magZ
5310.757279	-228.525421	145.214493	236.983643
5310.760615	-225.895386	142.642899	228.625946
5310.763941	-223.265350	140.363525	220.443588
5310.767272	-220.985962	138.259506	213.488617
5310.770615	-219.466400	135.395676	205.540024
5310.773962	-217.128601	133.116302	198.877258
5310.777276	-214.206329	131.187622	192.331390
5310.780672	-211.985413	128.616013	185.610168
5310.783954	-209.706024	126.219757	178.304504
5310.787280	-206.725311	123.648163	173.395081
5310.790605	-204.796600	121.251900	167.024551
5310.793938	-201.874359	119.030968	160.829346
5310.798593	-196.848022	114.881355	150.426071
5310.801495	-193.224426	112.601990	145.107544
5310.804821	-190.652832	110.381058	140.022797
5310.808220	-187.905914	108.218582	135.347168
5310.811524	-185.684967	106.465225	131.022217
5310.814871	-182.879578	105.237869	126.229691
5310.818140	-179.840454	102.490936	122.781418
5310.821450	-178.203979	101.029808	117.872002
5310.824374	-175.281708	98.984215	113.897713
5310.827701	-172.651672	97.581528	109.864983
5310.831025	-169.963196	95.945061	106.767387
5310.834364	-167.040894	94.250145	103.026886
5310.837716	-165.112213	93.256577	99.461716
5310.841060	-161.254822	91.327873	96.656342
5310.844382	-159.910583	90.100525	93.091171
5310.847702	-156.929871	88.873169	90.344246
5310.850598	-154.942719	87.412041	86.720634
5310.853934	-153.247803	86.360016	84.265930
5310.857268	-150.500885	84.489769	82.687904
5310.860625	-148.805969	83.671532	79.298073
5310.863934	-146.526581	82.794853	77.895386
5310.867267	-144.773224	80.573936	75.440681
5310.870604	-142.902985	79.697250	73.278198
5310.873929	-141.091156	79.054352	71.349503
5310.877266	-138.811798	77.651657	69.070137
5310.880601	-136.824677	76.190529	66.849213
5310.883936	-134.895966	74.729393	65.154297
5310.887263	-132.733490	74.203392	62.232029
5310.890599	-131.330811	72.333138	61.355347
5310.893931	-129.811218	71.573349	58.666859
5310.897261	-128.233185	70.462891	57.264172
5310.900594	-126.187614	69.586205	55.686146
5310.903945	-124.960258	68.241959	54.341904
5310.907262	-123.323784	67.657509	52.939217
5310.910594	-122.271767	66.488602	51.302746
5310.913927	-120.518410	65.670364	49.257156
5310.917257	-118.998833	64.326126	48.322033
5310.920597	-117.596138	62.631210	48.029804
5310.923927	-116.135017	62.222092	46.919346
5310.927258	-114.498528	60.760956	44.581532
5310.930594	-112.978966	60.468735	44.113968
5310.933928	-111.985390	59.592049	42.594387
5310.937256	-110.465813	58.481590	41.717705
5310.940596	-109.121559	57.897133	41.250145
5310.943928	-108.127998	56.903564	39.087666
5310.947279	-106.842201	56.494446	38.561657
5310.950592	-106.082405	55.500877	38.269432
5310.953926	-104.387489	54.799530	36.574516
5310.957257	-103.627708	54.682640	35.405609
5310.960587	-102.692581	54.039742	35.171829
5310.963923	-101.874336	53.279953	33.886028
5310.967317	-100.763878	52.111046	34.002922
5310.970594	-99.068962	51.585037	32.834015
5310.973925	-97.549393	51.117477	32.366451
5310.977261	-96.789597	51.468147	31.489773
5310.981882	-95.094681	50.065460	30.087084
5310.984784	-94.159554	49.773232	29.970194
5310.988126	-93.341316	49.188782	30.087084
5310.991490	-93.049095	49.188782	29.736412
5310.994836	-92.172409	48.545883	28.801287
5310.998175	-91.704842	48.253654	28.275278
5311.001433	-90.652832	48.019875	28.333723
5311.004771	-90.419052	47.260086	27.457045
5311.008106	-89.425484	47.376976	26.814144
5311.011017	-89.191696	46.909409	26.171246
5311.014367	-88.081238	46.500290	26.638807
5311.017674	-87.496780	46.324959	26.054354
5311.021039	-87.204552	45.857391	26.229691
5311.024355	-86.210991	45.331383	25.411455
5311.027733	-86.269424	45.798950	24.710112
5311.031017	-85.042084	45.798950	25.060783
5311.033952	-85.392746	44.922264	25.002338
5311.037249	-85.042084	44.162476	24.476330
5311.040589	-84.106956	44.162476	24.008768
5311.043914	-83.814728	43.694916	23.658096
5311.047253	-83.405617	43.811806	23.716541
5311.050583	-83.639397	43.578026	23.541204
5311.053912	-83.171829	43.519577	23.132088
5311.057249	-82.704269	43.110458	23.482759
5311.060581	-82.528923	42.701347	23.015198
5311.063913	-82.412041	42.818237	23.248978
5311.067250	-82.353592	42.526009	22.956751
5311.070581	-81.593803	42.058449	23.365870
5311.073912	-81.769142	41.766220	22.021626
5311.077269	-81.067802	41.240211	22.489187
5311.080583	-80.892456	41.181763	22.196960
5311.083914	-81.067802	40.889542	22.255405
5311.087265	-80.834023	41.415550	22.547632
5311.090583	-80.950905	41.532440	21.378727
5311.093912	-80.892456	40.831093	21.554062
5311.097242	-80.191109	40.655754	21.787844
5311.100576	-79.840446	40.480423	21.612507
5311.103910	-80.308006	40.538864	21.495617
5311.107242	-80.249557	40.831093	21.261835
5311.110578	-80.074226	40.597313	21.203390
5311.113908	-80.074226	40.947983	21.437172
5311.117241	-80.366455	40.538864	21.904734
5311.120607	-80.015778	40.597313	21.320280
5311.123911	-80.717125	40.831093	21.612507
5311.127245	-80.600235	41.123322	21.320280
5311.130575	-80.775574	41.064873	21.554062
5311.133902	-80.424896	40.772644	22.547632
5311.137239	-81.243134	40.947983	21.963179
5311.140572	-80.892456	41.532440	22.372297
5311.143900	-81.418465	41.590881	22.021626
5311.147292	-81.243134	41.357101	22.372297
5311.150579	-81.944481	41.590881	23.599651
5311.153909	-82.002922	41.532440	22.722971
5311.157240	-82.178261	41.590881	22.956751
5311.161861	-82.353592	42.058449	22.898306
5311.165223	-82.821152	42.175339	22.430742
5311.168114	-83.347168	42.584450	22.781416
5311.171511	-83.814728	42.175339	23.248978
5311.174835	-84.048508	42.000000	24.300995
5311.178179	-84.516075	42.584450	24.008768
5311.181420	-84.808304	42.642899	24.184103
5311.184753	-85.626534	42.642899	25.353010
5311.188103	-85.684982	43.168907	24.943893
5311.191441	-86.503204	43.110458	24.359440
5311.194326	-87.029221	43.519577	25.411455
5311.197681	-87.204552	43.519577	26.229691
5311.201012	-87.379898	43.636467	25.528347
5311.204360	-88.022789	43.636467	26.112801
5311.207688	-88.548805	44.104034	26.054354
5311.210990	-89.191696	44.045586	26.112801
5311.214333	-89.717712	44.863823	26.521917
5311.217232	-90.945068	44.805374	27.398600
5311.220566	-91.354179	44.688484	27.047926
5311.223900	-91.997078	45.214493	27.632380
5311.227226	-92.639969	46.091179	27.983051
5311.230559	-93.808876	45.974289	28.742842
5311.233897	-94.159554	46.149620	29.385740
5311.237229	-95.036232	47.084747	29.268850
5311.240560	-95.679131	47.143188	29.970194
5311.243894	-97.140266	47.260086	30.671537
5311.247230	-97.724724	47.844536	31.723553
5311.250588	-98.367622	48.195206	32.249561
5311.253890	-99.653419	48.954994	31.840445
5311.257234	-100.880768	49.539452	33.009350
5311.260561	-101.991234	50.299240	33.535358
5311.263892	-102.926361	50.942139	33.944473
5311.267225	-104.387489	50.942139	34.704266
5311.270563	-105.556389	51.409698	36.749855
5311.273890	-106.374634	52.111046	36.632961
5311.277228	-107.660439	52.987724	37.275860
5311.280556	-108.887779	53.689072	38.152542
5311.283893	-110.056694	54.448860	38.912331
5311.287225	-111.400932	55.150208	40.315018
5311.290558	-113.154289	55.325539	41.367035
5311.293918	-113.855629	56.669785	42.535942
5311.297225	-115.024544	57.312683	43.529514
5311.300562	-116.602577	58.014023	45.282875
5311.303889	-117.946815	58.072472	46.101109
5311.307224	-119.817070	59.007599	46.744007
5311.310555	-121.336632	59.708939	48.263588
5311.313892	-122.973106	60.702515	49.432495
5311.317225	-124.492699	61.286972	51.127407
5311.320584	-126.012276	61.929863	52.822327
5311.323889	-127.765633	62.748100	54.225014
5311.327218	-129.343658	63.507889	55.277031
5311.330553	-131.389252	63.858566	57.497952
5311.333895	-133.727051	64.384567	58.783749
5311.337253	-135.480408	65.261253	60.420219
5311.340556	-137.292236	65.845703	61.998245
5311.343898	-139.630035	67.248390	64.511398
5311.348513	-144.130341	69.410873	68.135010
5311.351447	-145.533020	70.170654	69.771477
5311.354754	-147.637054	70.287552	72.401520
5311.358174	-149.799530	72.216248	74.856216
5311.361497	-152.195801	73.443596	76.609589
5311.364739	-154.708954	74.378723	79.473404
5311.368080	-157.338989	75.021622	83.038574
5311.371400	-159.384583	76.307419	85.259499
5311.374749	-162.189941	77.300987	87.305084
5311.377651	-164.761536	78.645233	90.461136
5311.380999	-166.865570	80.281708	94.026299
5311.384328	-169.495605	81.099937	97.065460
5311.387672	-172.125671	82.444183	100.221504
5311.391046	-174.814148	83.554642	104.020454
5311.394307	-177.561066	85.015778	107.351837
5311.397635	-180.541779	86.769142	111.676796
5311.400555	-183.230286	88.522499	115.826416
5311.403876	-186.210999	89.632965	119.742249
5311.407208	-188.899475	90.918762	124.417885
5311.410542	-191.646423	92.263000	128.976624
5311.413878	-194.042664	93.548798	134.061371
5311.417213	-197.666290	95.126823	138.386322
5311.420544	-200.588531	96.120399	143.821732
5311.423877	-203.452362	97.464638	148.964935
5311.427210	-206.374634	99.627121	153.406769
5311.430559	-209.355347	100.445351	160.069550
5311.433875	-212.452972	102.140266	165.797195
5311.437210	-215.141449	103.250732	171.174164
5311.440540	-218.589722	104.711861	178.012268
5311.443877	-221.044434	106.114548	184.675049
5311.447206	-223.966705	106.991234	190.753357
5311.450540	-227.531860	108.277031	198.409698
5311.453876	-230.161896	110.030396	205.306259
5311.457208	-233.142609	111.082405	213.196381
5311.460538	-236.123322	112.426643	220.209824
5311.463876	-238.402679	113.770897	227.983063
5311.467204	-241.324951	114.589127	235.347168
5311.470536	-244.539459	115.407364	242.886627
5311.473890	-247.812408	116.517822	252.004089
5311.477212	-250.442444	117.336067	260.069550
5311.480538	-252.195801	118.212738	269.654602
5311.483870	-255.234955	118.680305	279.356506
5311.487206	-257.222076	119.498535	288.941559
5311.490540	-259.209229	120.199875	298.818817
5311.493870	-260.553497	120.842781	308.871429
5311.497208	-263.008209	121.544128	319.274689
5311.500539	-264.761536	121.661011	330.788422
5311.503871	-266.514893	122.187027	341.834595
5311.507205	-267.099365	122.654587	352.530121
5311.510533	-268.151398	123.063698	365.037415
5311.513865	-268.560486	123.063698	376.492706
5311.517204	-269.963165	123.589714	389.642883
5311.520541	-270.255402	122.829918	401.799530
5311.523868	-269.203369	122.946815	414.306824
5311.528471	-267.508484	122.537689	440.548798
5311.531840	-266.748688	121.953239	454.108124
5311.534778	-264.527771	121.193451	468.777924
5311.538074	-263.008209	121.018120	482.804810
5311.541473	-259.618347	119.732315	496.656342
5311.544854	-257.222076	118.563408	510.566315
5311.548092	-253.598480	116.225594	524.768616
5311.551389	-250.091766	114.355347	538.970825
5311.554753	-245.591492	112.777321	551.594971
5311.557622	-241.091187	110.848625	566.089478
5311.560963	-235.538879	107.867912	579.940979
5311.564286	-230.161896	105.296318	593.734070
5311.567636	-223.615997	102.374046	608.287048
5311.570994	-217.303925	99.217995	621.261841
5311.574319	-210.524261	96.003510	634.645874
5311.577650	-203.627716	92.379890	646.744019
5311.580952	-194.977783	88.171829	659.718933
5311.583869	-186.094086	83.437752	672.869141
5311.587194	-177.444183	78.937462	683.739990
5311.590527	-168.209808	74.378723	695.779663
5311.593866	-157.923431	69.352425	706.066040
5311.597189	-147.637054	63.917007	716.995361
5311.600526	-137.876678	58.598480	727.340210
5311.603868	-126.830513	53.338394	736.106995
5311.607195	-115.433662	46.558739	744.581604
5311.610531	-104.329048	41.181763	750.952087
5311.613860	-91.354179	35.395676	758.959106
5311.617188	-78.613091	29.083576	765.505005
5311.620522	-66.339561	22.771479	771.758667
5311.623853	-53.715370	16.985390	776.025146
5311.627191	-40.915836	10.965517	779.298096
5311.630524	-26.012272	3.776739	782.512573
5311.633854	-12.862068	-2.476914	786.136230
5311.637195	0.288136	-8.789012	787.655823
5311.640575	13.964350	-15.159555	788.649353
5311.643853	28.809469	-21.062536	787.246643
5311.647203	42.894798	-26.965519	786.837524
5311.650521	56.337231	-32.517822	783.973694
5311.653859	69.779663	-38.187027	781.928101
5311.657187	83.631210	-43.797775	777.778503
5311.660524	96.839867	-48.707184	772.167725
5311.663852	110.340736	-54.142609	765.914124
5311.667192	123.081825	-58.467560	759.718933
5311.670525	135.881348	-64.428993	752.997681
5311.673851	148.213318	-69.104622	745.750427
5311.677183	159.902405	-73.312683	736.165466
5311.680518	171.591461	-77.228523	727.457092
5311.683855	182.520752	-81.436584	717.053833
5311.687187	192.982483	-85.761543	706.767456
5311.690525	203.444183	-88.742256	695.019897
5311.693855	212.094086	-92.365868	683.623047
5311.697184	220.685577	-94.995911	671.466431
5311.700514	229.861481	-98.093513	658.842224
5311.703845	237.459381	-101.366455	645.516724
5311.707202	244.414368	-103.879601	633.418457
5311.711792	257.097015	-108.613678	606.358337
5311.715149	262.123322	-110.483925	593.208069
5311.718038	267.149628	-112.412628	578.655212
5311.721394	271.474579	-114.750443	565.329651
5311.724728	275.215088	-116.562241	551.419678
5311.728204	278.955566	-117.731148	537.509644
5311.731435	281.644043	-118.783173	524.008789
5311.734704	283.455872	-120.653419	510.157227
5311.738030	286.144348	-121.588547	496.831696
5311.741361	288.014587	-122.991234	482.980133
5311.744276	289.183502	-123.108124	468.661011
5311.747602	290.352417	-123.809479	455.393921
5311.750956	290.410858	-123.809479	441.483917
5311.754296	290.936859	-123.984802	429.268829
5311.757634	290.995331	-123.692581	415.767975
5311.760951	291.053772	-124.101700	402.559326
5311.764279	290.410858	-123.575699	390.753357
5311.767178	289.066620	-123.225021	379.882507
5311.770542	288.423706	-122.874352	366.732330
5311.773839	286.787262	-122.114555	354.751038
5311.777184	285.676788	-120.887199	344.756866
5311.780509	283.572754	-120.068962	333.184692
5311.783838	281.585602	-119.133835	322.313843
5311.787172	279.832275	-118.900055	311.033905
5311.790502	277.786682	-117.497368	300.279968
5311.793843	275.682648	-116.796021	289.993561
5311.797176	272.935699	-115.042671	279.940979
5311.800502	269.779663	-113.055519	270.180603
5311.803837	267.266510	-111.945061	261.822906
5311.807169	264.811798	-110.483925	251.594986
5311.810505	261.889526	-108.672127	243.412628
5311.813853	259.551727	-107.210991	235.464066
5311.817175	256.220337	-105.983635	227.690826
5311.820505	253.824097	-104.464058	219.683807
5311.823840	250.784912	-102.886024	211.735229
5311.827168	246.985992	-101.249557	204.721802
5311.830506	244.531281	-99.846870	197.357697
5311.833839	241.316772	-97.509056	190.578018
5311.837172	237.751617	-96.866165	183.681473
5311.840507	235.180023	-95.463470	177.486267
5311.843841	231.030396	-93.827003	171.115723
5311.847171	228.692566	-92.307426	165.563416
5311.850505	224.835175	-91.196960	160.069550
5311.853836	221.971375	-89.794273	155.160141
5311.857199	218.639984	-89.502052	149.841614
5311.860503	215.600830	-87.631798	145.224426
5311.863835	212.386322	-86.521332	139.905899
5311.867173	209.580933	-85.410873	135.288712
5311.870501	206.483337	-84.183517	130.613083
5311.873830	203.736420	-82.547050	126.989479
5311.877168	200.054352	-81.728813	122.722969
5311.880498	197.424316	-80.910583	118.631790
5311.883830	194.794281	-79.975456	114.774406
5311.887233	191.346008	-78.514320	111.267670
5311.890499	188.540619	-77.286972	108.228516
5311.893831	186.319702	-76.468727	104.371132
5311.898466	181.760956	-73.780243	97.883698
5311.901391	178.838684	-73.137352	94.318527
5311.904704	177.026886	-72.494446	91.746933
5311.908080	174.396851	-70.974869	88.883110
5311.911428	171.591461	-70.039742	86.194618
5311.914774	169.545868	-68.987724	83.389244
5311.918104	167.032745	-68.052605	80.876091
5311.921348	164.987152	-67.117477	78.362946
5311.924668	161.947998	-65.948570	75.908241
5311.927578	159.727051	-65.481010	73.102859
5311.930925	158.090576	-63.902985	72.050842
5311.934250	156.687897	-63.084747	69.537697
5311.937608	154.116302	-62.091179	66.790764
5311.940941	151.778503	-61.682060	64.394501
5311.944322	150.492706	-60.454712	62.933372
5311.947620	148.797791	-59.694916	60.537109
5311.950509	146.693741	-58.642899	58.842197
5311.953823	144.823486	-57.941551	58.257744
5311.957163	142.894806	-57.181763	56.621269
5311.960495	141.258331	-56.597313	54.634129
5311.963820	138.920502	-56.012856	52.705437
5311.967155	137.868500	-54.785507	51.711861
5311.970489	136.056702	-53.967270	50.601402
5311.973826	134.069550	-53.382820	49.432495
5311.977157	132.725311	-52.739914	47.036236
5311.980486	131.322632	-51.921684	47.036236
5311.983824	130.036819	-51.746353	45.224430
5311.987177	129.101685	-51.278786	45.107540
5311.990487	127.465225	-50.694336	43.587959
5311.993822	126.237869	-49.642319	42.828167
5311.997158	125.010529	-49.057861	41.893044
5312.000492	124.542961	-49.116310	41.133255
5312.003823	122.906494	-48.414963	40.081238
5312.007152	121.562241	-48.005844	39.321449
5312.010487	120.919350	-47.129166	38.094097
5312.013821	119.808884	-47.304497	36.925190
5312.017155	119.224426	-46.369370	37.158970
5312.020486	117.646408	-46.661606	36.106956
5312.023815	116.243721	-46.427818	35.814728
5312.027148	116.185272	-45.843369	34.061367
5312.030514	115.133255	-45.609589	34.821156
5312.033823	114.081238	-45.025131	34.412041
5312.037154	113.847458	-44.849792	33.067795
5312.040485	112.444771	-44.265343	32.775570
5312.043815	111.451195	-44.090004	32.132671
5312.047149	110.866745	-43.739334	31.606663
5312.050478	110.574516	-43.447105	31.431326
5312.053814	109.347168	-43.563995	30.203974
5312.057152	108.821159	-42.921097	29.619522
5312.060485	108.002922	-42.395088	30.262421
5312.063819	107.944473	-42.219757	29.444185
5312.067145	107.827583	-41.810638	28.684397
5312.070495	106.834015	-41.518410	27.690825
5312.073845	106.600235	-41.343071	28.333723
5312.077151	105.548218	-40.700172	27.223263
5312.081779	105.022209	-40.349503	27.340153
5312.085121	104.496208	-39.765053	26.463472
5312.088023	104.028641	-39.531265	26.580362
5312.091346	103.677971	-38.946815	25.995909
5312.094730	103.151962	-38.946815	26.463472
5312.098089	103.210411	-39.180595	25.353010
5312.101329	102.976624	-38.946815	25.294565
5312.104668	102.158386	-39.180595	25.353010
5312.107991	102.158386	-38.537697	25.060783
5312.110899	101.573929	-38.888367	24.827002
5312.114235	101.398598	-38.187027	25.060783
5312.117629	101.164818	-38.362358	24.885448
5312.120911	101.281708	-38.011688	24.885448
5312.124258	100.229691	-37.777908	25.236120
5312.127614	101.047928	-38.245468	24.359440
5312.130898	100.580368	-38.303917	24.184103
5312.133807	100.989479	-37.661018	24.417885
5312.137142	101.106369	-38.187027	23.774986
5312.140471	100.580368	-38.070137	24.651667
5312.143808	100.814148	-37.894798	24.476330
5312.147138	100.638809	-38.128578	24.885448
5312.150469	101.106369	-38.128578	25.353010
5312.153799	100.872589	-37.953247	25.879019
5312.157143	101.164818	-37.544128	25.177675
5312.160495	100.931038	-38.596146	25.060783
5312.163801	101.924606	-38.362358	24.827002
5312.167144	101.690826	-38.128578	25.002338
5312.170468	101.983055	-38.070137	25.703682
5312.173800	102.158386	-38.128578	25.586792
5312.177134	102.333725	-38.946815	26.171246
5312.180471	102.976624	-38.420807	25.879019
5312.183801	103.210411	-38.771477	26.346581
5312.187134	102.742836	-39.122154	26.697252
5312.190469	103.035072	-39.297485	26.112801
5312.193801	103.444191	-39.063705	25.879019
5312.197133	104.145531	-38.596146	26.346581
5312.200473	104.788429	-39.063705	25.879019
5312.203797	104.379311	-39.297485	26.638807
5312.207130	105.606667	-39.355934	27.457045
5312.210476	105.372879	-39.122154	27.573935
5312.213803	106.015785	-39.531265	27.690825
5312.217134	106.308006	-39.940384	28.158388
5312.220471	107.243134	-39.706604	28.567505
5312.223794	107.769142	-40.115723	28.976624
5312.227130	108.295151	-39.355934	29.619522
5312.230466	108.996490	-40.466393	30.028639
5312.233800	109.931618	-39.940384	29.561075
5312.237131	110.399178	-40.115723	31.139101
5312.240464	111.451195	-40.583282	32.074223
5312.243792	111.684975	-40.115723	31.723553
5312.247170	112.795441	-40.583282	32.424896
5312.250463	113.789017	-40.641731	32.775570
5312.253816	114.607254	-40.817062	33.652248
