time (s)	magX	magY	magZ
4625.405832	-210.348907	106.465225	108.812973
4625.409154	-212.920532	107.517235	112.261246
4625.412484	-215.667450	109.153702	114.131500
4625.415819	-217.187012	110.497955	117.872002
4625.419153	-220.109283	111.725296	121.846291
4625.422489	-222.037994	113.420219	126.229691
4625.425815	-225.135590	114.589127	130.028641
4625.429153	-227.531860	116.693153	133.535355
4625.432485	-230.161896	117.803627	137.568085
4625.435815	-233.025726	119.907661	141.133255
4625.439149	-235.071320	121.777908	145.575104
4625.442488	-237.935120	123.531265	150.133835
4625.445817	-241.383423	125.869080	154.751022
4625.449149	-243.604340	127.856224	158.900635
4625.452482	-246.000580	129.200470	163.810043
4625.455819	-248.338409	131.421402	168.836349
4625.459145	-251.728241	133.934540	174.213318
4625.462479	-253.247803	135.863235	179.356506
4625.465814	-257.455872	137.733490	185.317947
4625.469199	-260.202820	139.895966	191.279358
4625.472481	-262.657501	142.000000	197.123901
4625.475847	-264.878448	143.928696	203.669769
4625.480440	-270.372314	148.721207	215.884857
4625.483773	-273.119232	150.766800	223.541199
4625.486704	-275.749298	152.520157	230.379303
4625.490026	-279.548218	154.916428	238.327866
4625.493407	-282.295166	157.020462	245.984207
4625.496736	-284.691406	159.124481	253.406769
4625.500066	-286.912323	162.163651	261.004669
4625.503326	-289.542358	163.683228	270.297485
4625.506268	-292.464661	165.670364	279.298065
4625.509572	-294.217987	168.241959	288.357086
4625.512894	-297.490936	169.410858	297.649933
4625.516233	-299.478088	171.690247	307.936310
4625.519573	-301.289886	173.735825	317.229126
4625.522921	-303.686157	175.489182	327.281708
4625.526256	-305.322632	177.534775	337.977203
4625.529634	-307.075989	178.937469	349.666260
4625.532474	-308.770905	180.281708	359.251312
4625.535802	-310.290497	182.736420	370.355927
4625.539149	-312.102264	183.496201	381.869659
4625.542473	-313.271210	186.184692	393.558716
4625.545804	-314.030975	187.821152	405.423157
4625.549141	-314.147858	189.165390	417.345978
4625.552468	-315.024536	190.509644	429.502625
4625.555807	-315.083008	191.970764	441.425507
4625.559135	-314.673889	193.548798	454.108124
4625.562481	-314.673889	194.191696	466.206299
4625.565803	-314.966125	195.594391	479.414978
4625.569137	-313.621857	196.120392	493.675659
4625.572468	-312.920532	197.523087	506.416748
4625.575799	-311.634705	197.990646	519.333191
4625.579133	-309.647583	199.393341	531.548218
4625.582474	-307.192871	199.218002	545.575134
4625.585801	-304.329041	200.386917	558.491516
4625.589168	-301.289886	200.036240	573.219788
4625.592487	-298.309204	201.029800	586.311523
4625.595805	-295.503815	200.912903	601.039734
4625.599137	-290.711304	200.854477	614.774414
4625.602466	-286.269440	200.562241	628.041504
4625.605806	-280.775574	200.036240	643.062012
4625.609136	-275.515503	199.685562	658.082458
4625.612467	-269.787842	198.575104	670.940430
4625.615802	-263.475769	197.815323	684.733521
4625.619132	-255.760956	196.646408	698.468201
4625.622469	-248.805969	195.302155	713.254822
4625.625799	-240.915863	193.022797	725.879089
4625.629130	-233.201050	190.918762	740.139709
4625.632465	-223.908234	188.522491	754.984802
4625.635803	-215.141449	186.184692	767.141479
4625.639133	-205.907074	182.444183	781.109924
4625.642463	-195.737579	178.995911	794.318542
4625.645788	-185.042084	175.255402	806.708984
4625.649130	-173.586792	171.865570	818.573364
4625.652463	-162.599060	167.189941	830.671570
4625.655814	-149.682648	163.332550	843.003540
4625.659132	-137.818237	158.423141	853.289978
4625.663725	-112.686729	148.253647	873.278198
4625.666662	-99.478081	142.701340	882.161987
4625.670004	-85.860313	137.265930	890.344299
4625.673351	-72.885445	130.778488	897.942139
4625.676726	-58.332550	124.933952	905.715454
4625.680061	-44.305672	118.680305	911.793701
4625.683393	-30.161892	112.894203	916.644653
4625.686645	-16.193451	106.932785	921.203369
4625.689980	-1.932787	101.263588	925.645203
4625.692887	12.736997	94.659264	928.509094
4625.696228	27.114553	88.464058	930.905334
4625.699546	42.018120	82.385735	932.717224
4625.702887	55.811222	76.015190	934.002930
4625.706230	70.188782	70.053764	933.886047
4625.709571	84.741669	63.040329	933.301636
4625.712911	98.885445	57.371132	932.950928
4625.715845	112.561661	51.409698	929.678040
4625.719122	126.705429	45.506721	926.405029
4625.722461	140.206314	40.421974	922.898376
4625.725792	153.181183	34.460548	918.047424
4625.729118	166.156067	29.142021	913.079529
4625.732451	179.189362	23.355932	908.287048
4625.735791	191.170654	17.569843	901.273499
4625.739120	204.145538	12.309760	895.019897
4625.742452	216.009949	7.458796	885.434875
4625.745791	228.049683	0.679135	877.252563
4625.749118	238.452972	-4.639392	868.953308
4625.752453	249.908234	-9.782583	859.134460
4625.755785	260.545288	-14.691992	848.380554
4625.759132	270.481018	-19.484510	838.970825
4625.762456	279.364685	-24.335476	828.509094
4625.765783	288.715942	-28.309763	816.060242
4625.769114	297.774963	-33.394508	804.195862
4625.772450	306.600220	-38.128578	792.272949
4625.775787	313.847473	-42.278198	779.122742
4625.779114	320.802429	-46.252480	766.557007
4625.782491	327.815887	-50.811226	753.991211
4625.785780	334.127991	-54.727058	739.555298
4625.789117	340.790771	-58.935127	726.931091
4625.792449	346.109283	-62.558739	713.196411
4625.795779	350.492676	-66.416130	699.637085
4625.799118	354.350098	-69.046173	685.551758
4625.802484	358.382812	-72.611336	672.576843
4625.805777	361.947968	-74.540039	657.965515
4625.809116	365.337830	-77.988312	643.178833
4625.812448	368.318512	-80.501465	630.320923
4625.815773	370.130310	-82.663940	616.527832
4625.819112	371.299225	-85.001755	603.319153
4625.822441	373.052582	-87.339569	588.941589
4625.825778	373.929291	-89.268265	575.908264
4625.829108	375.507294	-90.495621	563.284058
4625.832446	375.448853	-92.307426	550.016968
4625.835773	375.215057	-93.768555	537.568115
4625.839108	375.390411	-94.762131	524.125671
4625.843813	374.279938	-97.625954	500.805939
4625.846727	373.637054	-97.976624	488.824646
4625.849959	372.234375	-99.145523	475.206879
4625.853310	372.292786	-99.437759	464.336060
4625.856654	370.013458	-100.372879	452.880737
4625.859982	368.318512	-100.781998	441.659241
4625.863361	367.032745	-101.483337	431.197540
4625.866719	365.513153	-101.483337	420.209808
4625.870019	363.642914	-101.249557	409.338989
4625.873291	360.895966	-101.483337	399.637054
4625.876200	358.791931	-101.191124	388.649323
4625.879527	356.863220	-101.132675	378.655182
4625.882876	354.350098	-101.132675	369.187042
4625.886199	351.544708	-101.015778	359.426666
4625.889569	348.563995	-101.308006	350.835205
4625.892887	345.933960	-100.665108	341.367035
4625.896227	343.128571	-100.372879	332.191132
4625.899108	340.673859	-100.080650	322.722961
4625.902441	337.400940	-99.496201	313.605499
4625.905774	335.121552	-99.262421	304.897125
4625.909107	331.497955	-98.853310	297.065460
4625.912432	327.932770	-98.619530	289.292236
4625.915774	325.010498	-98.151962	281.635895
4625.919100	321.270020	-97.918182	274.213318
4625.922432	318.289307	-97.509056	266.849213
4625.925769	314.957916	-96.807716	260.011108
4625.929107	311.334290	-96.924606	252.763885
4625.932473	308.762695	-96.106369	245.633545
4625.935761	306.249573	-95.931038	239.379898
4625.939104	303.093506	-95.171242	233.710709
4625.942434	299.236115	-94.762131	228.275284
4625.945768	295.261841	-94.411461	222.606079
4625.949102	292.339569	-93.651665	216.410858
4625.952434	289.300415	-93.300995	211.559906
4625.955768	286.319702	-92.599648	206.241379
4625.959096	282.812958	-92.248978	201.098190
4625.962432	280.708923	-91.839859	197.416122
4625.965766	277.435974	-91.489189	192.039154
4625.969092	275.098175	-90.437172	187.831085
4625.972440	272.000580	-90.378723	184.090591
4625.975762	268.902985	-90.028053	178.772064
4625.979092	266.506714	-89.385162	175.265350
4625.982450	263.584442	-88.274696	170.589706
4625.985762	260.603729	-87.222679	167.492111
4625.989100	258.265930	-86.579781	162.933365
4625.992424	255.811218	-86.521332	160.303329
4625.995767	253.590302	-85.936882	157.205719
4625.999097	251.661621	-85.118645	152.530090
4626.002431	248.563995	-84.417305	149.783173
4626.005767	247.044434	-83.482178	146.919342
4626.009098	244.355927	-83.365288	143.471069
4626.012432	242.018127	-82.839272	141.425476
4626.015758	239.621857	-81.728813	138.210983
4626.019096	237.576263	-81.436584	135.580948
4626.022423	235.764465	-80.267677	133.360031
4626.027128	231.614838	-78.572769	127.866158
4626.030023	229.043243	-78.397430	125.995911
4626.033273	227.699005	-77.871422	122.606071
4626.036599	225.828766	-77.754532	120.034477
4626.039940	223.783173	-76.994743	117.638214
4626.043313	221.679138	-77.111633	115.183517
4626.046627	219.750427	-76.176506	113.313271
4626.050025	217.938629	-75.124489	110.390999
4626.053338	215.659271	-75.241379	108.637642
4626.056210	213.905914	-74.773819	106.942726
4626.059517	212.737000	-74.247810	105.656921
4626.062849	210.925171	-73.897133	103.202225
4626.066177	209.113373	-73.604912	101.331963
4626.069514	207.184692	-73.371132	99.637054
4626.072856	205.781982	-72.377556	98.818817
4626.076178	204.262421	-72.377556	96.714790
4626.079534	202.801300	-72.202225	94.961426
4626.082415	201.749268	-71.968445	94.143196
4626.085756	200.463470	-71.500877	92.156044
4626.089082	198.710114	-71.617767	91.045586
4626.092433	197.774994	-70.916428	90.402687
4626.095758	195.846283	-70.682648	88.824661
4626.099085	195.320282	-70.039742	87.480415
4626.102423	194.034485	-70.565758	86.545296
4626.105784	192.807129	-70.156631	85.902397
4626.109083	192.573334	-70.156631	85.084160
4626.112431	191.053772	-69.689072	83.973701
4626.115754	190.410889	-69.455292	82.921684
4626.119078	189.183533	-68.929283	82.512566
4626.122412	188.014618	-68.812393	82.161888
4626.125746	187.547058	-68.695503	81.343658
4626.129082	186.904144	-68.520164	80.759201
4626.132414	186.728821	-68.578613	80.817650
4626.135746	185.910583	-67.935715	80.642311
4626.139087	184.624786	-68.052605	80.408531
4626.142413	184.332550	-67.935715	79.590294
4626.145745	184.566345	-67.585037	78.830505
4626.149105	183.806549	-67.351257	78.187607
4626.152414	182.871429	-66.942139	76.434250
4626.155748	182.579193	-67.526588	77.427818
4626.159123	182.170074	-67.117477	77.077148
4626.162413	181.644073	-67.351257	76.843369
4626.165742	181.410278	-66.942139	76.434250
4626.169080	181.234955	-67.000587	76.492699
4626.172412	181.059601	-66.533020	75.674461
4626.175739	180.533600	-66.825249	75.090004
4626.179075	180.650482	-66.474579	75.908241
4626.182403	180.182922	-67.000587	74.680885
4626.185740	180.182922	-66.065460	73.979546
4626.189073	180.182922	-65.890121	74.096436
4626.192413	179.423126	-66.649918	74.388657
4626.195739	179.189362	-66.825249	74.213326
4626.199089	179.130920	-66.825249	73.804207
4626.202406	179.247803	-66.182350	73.044418
4626.205735	179.715363	-66.766808	73.278198
4626.210425	179.364716	-66.533020	73.570419
4626.213348	179.423126	-66.708359	73.044418
4626.216640	179.598480	-67.234367	72.810638
4626.219925	178.780243	-67.234367	73.044418
4626.223265	179.540039	-67.409698	73.336639
4626.226593	180.241394	-67.994164	73.511978
4626.229939	180.241394	-68.169495	74.096436
4626.233360	180.650482	-68.052605	74.213326
4626.236230	180.942719	-67.818825	74.797775
4626.239611	181.468750	-67.643478	75.206902
4626.242862	181.468750	-68.461723	74.973114
4626.246162	182.345428	-68.578613	75.732903
4626.249489	182.754517	-69.221512	76.609589
4626.252829	183.397430	-69.163071	77.895386
4626.256166	184.390991	-69.513741	78.479836
4626.259487	185.326111	-70.039742	79.590294
4626.262824	186.027466	-70.331970	80.408531
4626.265736	186.085907	-70.215080	81.051430
4626.269066	187.079498	-70.682648	81.928108
4626.272401	187.956177	-70.857979	82.863235
4626.275732	188.657501	-71.559326	84.090591
4626.279088	189.534180	-72.085335	84.967270
4626.282401	190.703094	-72.377556	86.194618
4626.285738	192.105774	-72.552895	86.837524
4626.289066	193.216248	-73.254242	87.831093
4626.292401	193.683807	-73.488022	89.467560
4626.295727	194.151367	-73.078903	90.578026
4626.299067	196.489197	-73.604912	92.156044
4626.302391	197.424316	-74.715370	92.156044
4626.305730	198.826996	-75.007599	93.850960
4626.309063	199.703674	-75.299828	94.376976
4626.312400	201.515472	-76.059616	95.896553
4626.315725	202.684387	-76.585625	97.299240
4626.319064	203.561066	-77.403862	98.585037
4626.322423	204.963776	-76.936302	99.870834
4626.325725	206.892456	-77.462303	101.039742
4626.329068	207.535370	-78.455879	102.267097
4626.332391	208.996490	-79.157219	103.786667
4626.335725	210.165405	-79.215668	106.182930
4626.339064	211.918762	-79.975456	107.293388
4626.342389	213.730560	-80.501465	110.390999
4626.345725	215.074799	-81.319695	111.618347
4626.349064	216.535950	-82.196381	113.254822
4626.352398	218.172424	-82.254822	115.300400
4626.355725	219.633545	-83.482178	116.936874
4626.359055	221.386902	-83.832848	119.157799
4626.362392	222.906494	-84.651085	122.956749
4626.365759	225.010529	-85.352425	123.891876
4626.369056	226.588531	-85.819992	126.989479
4626.372396	228.634155	-86.579781	129.794861
4626.375724	230.913483	-87.456459	132.366455
4626.379060	232.725311	-88.625366	134.879593
4626.382388	235.589111	-89.560493	138.327866
4626.385722	236.874939	-90.378723	139.438339
4626.389056	239.797180	-91.606079	143.880188
4626.392390	241.959656	-92.190536	147.445358
4626.397069	246.635284	-93.651665	154.692581
4626.400026	248.914673	-95.112808	157.614853
4626.403313	251.953827	-95.580368	161.355347
4626.406572	253.648743	-96.573929	165.621857
4626.409933	256.454102	-97.216843	170.180588
4626.413241	259.084167	-98.210403	173.804214
4626.416600	261.714203	-99.262421	178.479843
4626.419951	264.461121	-100.080650	182.044998
4626.422833	267.091187	-100.781998	187.538864
4626.426158	269.662750	-101.775566	192.740494
4626.429537	272.526611	-103.002922	198.175919
4626.432808	275.331970	-103.587372	202.676208
4626.436142	278.195770	-104.347168	207.936295
4626.439479	280.767395	-104.990074	212.611923
4626.442805	283.455872	-106.042084	218.456451
4626.446149	286.202820	-106.568092	223.424301
4626.449053	289.475739	-107.503220	228.567490
4626.452399	292.339569	-108.496796	234.236710
4626.455715	294.969604	-110.074814	240.957916
4626.459055	297.833435	-110.659264	245.750443
4626.462386	301.223236	-111.945061	251.887192
4626.465712	302.859741	-112.704857	258.608429
4626.469046	306.424896	-113.523087	264.511414
4626.472380	308.762695	-115.334900	271.758606
4626.475719	311.626526	-115.977798	277.778503
4626.479047	313.730560	-117.205147	285.025726
4626.482376	317.295746	-118.490944	292.331360
4626.485717	320.042664	-119.776741	300.338409
4626.489049	322.906494	-120.127411	308.345398
4626.492381	325.536530	-121.179436	317.404449
4626.495713	328.634125	-122.874352	325.002350
4626.499043	330.796631	-123.283463	333.769135
4626.502389	333.075958	-124.452377	342.945068
4626.505716	336.115143	-124.686157	352.296326
4626.509040	338.686707	-126.205719	361.881348
4626.512377	340.440094	-126.848633	371.875519
4626.515706	343.128571	-127.959091	382.804779
4626.519042	344.940369	-128.251328	393.091156
4626.522374	347.511963	-128.952667	403.202240
4626.525705	349.089996	-129.887787	414.540619
4626.529039	350.726471	-129.770889	426.580353
4626.532374	352.772064	-130.530685	437.451202
4626.535706	353.824097	-130.706024	449.724701
4626.539067	356.629456	-130.939804	461.764465
4626.542368	356.337219	-131.758041	474.330231
4626.545713	357.564575	-131.991821	488.590881
4626.549042	358.441254	-131.991821	500.338409
4626.552374	359.376373	-131.348907	513.254822
4626.555709	359.201050	-131.407364	526.405090
4626.559039	358.967285	-130.939804	539.905945
4626.562367	358.441254	-130.822922	553.699036
4626.565699	358.265930	-130.063126	567.024597
4626.569042	357.389221	-130.063126	580.174805
4626.572372	356.921661	-128.601990	594.903015
4626.577051	353.940948	-127.140854	622.898376
4626.580415	351.252472	-126.205719	637.743469
4626.583342	349.148468	-125.095261	651.068970
4626.586640	346.050842	-123.575699	664.920532
4626.589910	343.537689	-122.640572	677.369446
4626.593216	339.504944	-120.653419	691.805420
4626.596543	336.173584	-119.250732	704.780273
4626.599902	331.439514	-117.322037	718.690247
4626.603242	326.120972	-115.276451	731.898926
4626.606174	321.912903	-113.055519	746.393372
4626.609478	315.483917	-110.834602	758.783813
4626.612816	310.340729	-107.853882	771.641724
4626.616136	303.561066	-105.866745	784.324402
4626.619455	296.664520	-103.412041	797.416199
4626.622792	288.482147	-100.489777	810.098816
4626.626166	280.942719	-96.924606	821.787903
4626.629033	272.643494	-93.593224	834.587463
4626.632374	264.168915	-90.144943	846.159607
4626.635695	255.285217	-87.105789	856.679810
4626.639034	245.700165	-83.248398	867.083069
4626.642358	235.998260	-79.332558	877.486267
4626.645692	224.309174	-75.650497	886.954468
4626.649033	213.847473	-70.741089	896.890137
4626.652362	202.742828	-65.890121	905.656982
4626.655694	189.709534	-61.039162	914.657532
4626.659025	177.552887	-56.305084	922.664490
4626.662360	164.519592	-50.869667	928.742859
4626.665696	150.960266	-44.849792	934.704285
4626.669049	137.517822	-39.881943	940.607239
4626.672364	123.315605	-34.154297	945.633545
4626.675705	109.639397	-28.309763	949.081848
4626.679023	95.320282	-21.939217	952.062561
4626.682357	81.059616	-16.679134	954.283508
4626.685688	65.922272	-9.899473	955.919983
4626.689027	51.252483	-3.996493	957.205750
4626.692358	36.115139	2.315605	956.855103
4626.695691	21.153128	9.445938	955.452393
4626.699029	6.775572	16.108707	954.341980
4626.702354	-8.244884	21.894798	950.484558
4626.705686	-22.973114	27.739334	947.328552
4626.709021	-37.350674	33.876095	943.529602
4626.712376	-51.319107	40.071304	938.503235
4626.715690	-65.345993	45.623611	933.476990
4626.719027	-79.548218	51.877266	925.586853
4626.722357	-93.341316	57.137344	920.502075
4626.725687	-107.075981	62.514320	912.962585
4626.729017	-119.641731	68.358849	904.955627
4626.732380	-133.084167	74.086502	895.896606
4626.735696	-144.948578	79.229691	886.779114
4626.739023	-157.338989	83.963760	877.077148
4626.742361	-169.495605	89.223846	867.199890
4626.745685	-180.658661	93.899467	857.673340
4626.749022	-191.587952	98.691994	846.977783
4626.752351	-201.173004	102.490936	833.886047
4626.755686	-212.160736	107.108124	821.963196
4626.760311	-231.155457	115.348915	798.585022
4626.763266	-240.331390	119.206314	784.558167
4626.766565	-249.331970	122.713036	771.992432
4626.769940	-257.748108	125.985977	758.842224
4626.773277	-265.930450	129.025131	745.049133
4626.776541	-272.768555	131.947388	731.840515
4626.779855	-280.483337	135.103439	716.352417
4626.783194	-287.321442	137.616592	703.202271
4626.786566	-293.282867	140.421967	688.824646
4626.789442	-298.893616	142.409119	674.213318
4626.792774	-304.036804	145.389832	659.426636
4626.796134	-309.238464	146.967865	644.230896
4626.799502	-314.323212	148.721207	628.742859
4626.802850	-318.063721	149.890121	615.066650
4626.806123	-322.505554	151.760376	601.390442
4626.809442	-324.668030	152.870834	585.785522
4626.812345	-327.999420	154.215073	571.875549
4626.815684	-330.454132	155.208649	558.140869
4626.819013	-332.791931	156.377563	543.704834
4626.822347	-334.545319	156.611343	529.561096
4626.825676	-336.415558	156.903564	515.884888
4626.829012	-336.707794	157.604904	502.208649
4626.832342	-338.636475	157.663345	489.350677
4626.835672	-339.688507	157.546463	474.914673
4626.839016	-339.220947	157.546463	461.998260
4626.842363	-338.870239	157.488022	450.133820
4626.845678	-338.870239	157.488022	438.269409
4626.849014	-337.642914	156.903564	427.281708
4626.852339	-337.058472	156.026886	414.073059
4626.855673	-334.895966	155.910004	403.026886
4626.859042	-333.843964	154.682648	392.623596
4626.862340	-332.616608	154.156631	381.343658
4626.865672	-330.687927	153.689072	371.524841
4626.869009	-329.051422	152.227936	360.595551
4626.872342	-326.479858	151.585037	351.010529
4626.875674	-324.142029	150.416122	341.717712
