time (s)	det(V)
3355.849515	0.971686	
3355.851079	1.013282	
3355.852789	1.053448	
3355.854337	1.076192	
3355.856053	1.112072	
3355.857581	1.146072	
3355.859309	1.187660	
3355.860811	1.212913	
3355.862578	1.257567	
3355.864065	1.299333	
3355.865843	1.346799	
3355.867324	1.395400	
3355.869123	1.454516	
3355.870602	1.491995	
3355.872386	1.534148	
3355.873877	1.583628	
3355.875639	1.611713	
3355.877146	1.618465	
3355.878916	1.618606	
3355.880428	1.618545	
3355.882152	1.618441	
3355.883668	1.618428	
3355.885388	1.618610	
3355.886926	1.618388	
3355.888630	1.618545	
3355.890189	1.618461	
3355.891867	1.618626	
3355.893428	1.618473	
3355.895112	1.618525	
3355.896697	1.618565	
3355.898359	1.618541	
3355.899946	1.618352	
3355.901594	1.618598	
3355.903207	1.618364	
3355.904827	1.618553	
3355.906459	1.618404	
3355.908089	1.618561	
3355.909737	1.618388	
3355.911359	1.618642	
3355.913034	1.618493	
3355.914611	1.618485	
3355.916286	1.618469	
3355.917866	1.618469	
3355.919561	1.618275	
3355.921128	1.618541	
3355.922821	1.618537	
3355.924384	1.618521	
3355.926096	1.618509	
3355.927651	1.618497	
3355.929380	1.618610	
3355.930914	1.618513	
3355.932633	1.618448	
3355.934120	1.618505	
3355.935880	1.618533	
3355.937363	1.618573	
3355.939144	1.618565	
3355.940639	1.618513	
3355.942413	1.618473	
3355.943893	1.618565	
3355.945676	1.618634	
3355.947163	1.618497	
3355.948917	1.618618	
3355.950420	1.618477	
3355.952150	1.618557	
3355.953688	1.618481	
3355.955419	1.618497	
3355.956952	1.618489	
3355.958659	1.618586	
3355.960200	1.618525	
3355.961901	1.618505	
3355.963461	1.618573	
3355.965126	1.618606	
3355.966720	1.618634	
3355.968207	1.618497	
3355.969785	1.618493	
3355.971304	1.618449	
3355.972951	1.618590	
3355.974425	1.618497	
3355.976075	1.618428	
3355.977556	1.618416	
3355.979210	1.618606	
3355.980708	1.618473	
3355.982337	1.618577	
3355.983851	1.618489	
3355.985429	1.618557	
3355.986966	1.618420	
3355.988514	1.618533	
3355.990127	1.618485	
3355.991623	1.618525	
3355.993293	1.618441	
3355.994787	1.618582	
3355.996431	1.618509	
3355.997931	1.618557	
3355.999653	1.618577	
3356.001141	1.618630	
3356.002880	1.618525	
3356.004353	1.618497	
3356.006074	1.618505	
3356.007564	1.618501	
3356.009275	1.618485	
3356.010759	1.618509	
3356.012462	1.618533	
3356.013947	1.618521	
3356.015642	1.618549	
3356.017146	1.618553	
3356.018816	1.618469	
3356.020330	1.618477	
3356.021972	1.618606	
3356.023515	1.618380	
3356.025214	1.618565	
3356.026774	1.618456	
3356.028459	1.618497	
3356.030026	1.618469	
3356.031706	1.618569	
3356.033310	1.618360	
3356.034962	1.618457	
3356.036553	1.618517	
3356.038187	1.618638	
3356.039799	1.618549	
3356.041450	1.618457	
3356.043084	1.618481	
3356.044694	1.618509	
3356.046372	1.618372	
3356.047965	1.618557	
3356.049634	1.618509	
3356.051227	1.618541	
3356.052899	1.618388	
3356.054479	1.618521	
3356.056176	1.618521	
3356.057731	1.618481	
3356.059444	1.618449	
3356.060983	1.618295	
3356.062705	1.517462	
3356.064235	1.272758	
3356.065965	1.040183	
3356.067467	0.845587	
3356.069243	0.625153	
3356.070722	0.410641	
3356.072516	0.159028	
3356.073997	-0.054170	
3356.075773	-0.303375	
3356.077263	-0.512585	
3356.079027	-0.738497	
3356.080510	-0.937843	
3356.082273	-1.175470	
3356.083780	-1.368636	
3356.085527	-1.572658	
3356.087045	-1.639041	
3356.088763	-1.639605	
3356.090294	-1.639758	
3356.091992	-1.639548	
3356.093541	-1.639697	
3356.095246	-1.639617	
3356.096800	-1.639653	
3356.098483	-1.639746	
3356.100058	-1.639721	
3356.101746	-1.639645	
3356.103318	-1.639770	
3356.104972	-1.639532	
3356.106575	-1.639673	
3356.108217	-1.639593	
3356.109841	-1.639721	
3356.111453	-1.639649	
3356.113082	-1.639778	
3356.114700	-1.639580	
3356.116353	-1.639713	
3356.117957	-1.639580	
3356.119631	-1.639782	
3356.121208	-1.639701	
3356.122889	-1.639782	
3356.124451	-1.639729	
3356.126163	-1.639742	
3356.127728	-1.639677	
3356.129440	-1.639705	
3356.130999	-1.639580	
3356.132725	-1.639762	
3356.134272	-1.639717	
3356.136009	-1.639778	
3356.137518	-1.639709	
3356.139272	-1.639713	
3356.140765	-1.639709	
3356.142530	-1.639834	
3356.144021	-1.639754	
3356.145793	-1.639693	
3356.147274	-1.639685	
3356.149059	-1.639673	
3356.150542	-1.639774	
3356.152315	-1.639713	
3356.153802	-1.639786	
3356.155559	-1.639693	
3356.157062	-1.639774	
3356.158813	-1.639721	
3356.160343	-1.639818	
3356.162084	-1.639693	
3356.163609	-1.639806	
3356.165124	-1.639842	
3356.166732	-1.639774	
3356.168227	-1.639737	
3356.169855	-1.639774	
3356.171388	-1.639750	
3356.173053	-1.639758	
3356.174533	-1.639750	
3356.176179	-1.639778	
3356.177653	-1.639737	
3356.179299	-1.639754	
3356.180781	-1.639818	
3356.182411	-1.639790	
3356.183891	-1.639786	
3356.185489	-1.639766	
3356.187021	-1.639838	
3356.188579	-1.639758	
3356.190197	-1.639850	
3356.191680	-1.639842	
3356.193335	-1.639762	
3356.194898	-1.639693	
3356.196515	-1.639770	
3356.198048	-1.639697	
3356.199723	-1.639774	
3356.201198	-1.639701	
3356.202883	-1.639798	
3356.204360	-1.639717	
3356.206075	-1.639750	
3356.207564	-1.639742	
3356.209303	-1.639665	
3356.210789	-1.639746	
3356.212506	-1.639641	
3356.213997	-1.639713	
3356.215718	-1.639750	
3356.217199	-1.639770	
3356.218878	-1.639617	
3356.220378	-1.639697	
3356.222098	-1.639621	
3356.223622	-1.639806	
3356.225371	-1.639629	
3356.226906	-1.639725	
3356.228612	-1.639516	
3356.230158	-1.639742	
3356.231855	-1.639516	
3356.233415	-1.639729	
3356.235097	-1.639528	
3356.236669	-1.639669	
3356.238332	-1.639532	
3356.239921	-1.639746	
3356.241571	-1.639593	
3356.243182	-1.639786	
3356.244813	-1.639500	
3356.246415	-1.639737	
3356.248042	-1.639552	
3356.249727	-1.639737	
3356.251305	-1.639588	
3356.252966	-1.639685	
3356.254542	-1.639536	
3356.256223	-1.639713	
3356.257810	-1.639621	
3356.259487	-1.639613	
3356.261057	-1.639585	
3356.262763	-1.639645	
3356.264300	-1.639568	
3356.266018	-1.639649	
3356.267544	-1.639657	
3356.269276	-1.639588	
3356.270772	-1.639601	
3356.272526	-1.639500	
3356.274015	-1.630553	
3356.275821	-1.548331	
3356.277301	-1.502452	
3356.279085	-1.438193	
3356.280562	-1.389442	
3356.282339	-1.344373	
3356.283815	-1.303002	
3356.285553	-1.255359	
3356.287056	-1.219491	
3356.288777	-1.188239	
3356.290305	-1.154704	
3356.292038	-1.109993	
3356.293564	-1.084840	
3356.295268	-1.055696	
3356.296808	-1.012448	
3356.298494	-0.976857	
3356.300056	-0.949340	
3356.301737	-0.913689	
3356.303311	-0.883807	
3356.304976	-0.869418	
3356.306561	-0.843814	
3356.308222	-0.818331	
3356.309830	-0.801706	
3356.311486	-0.776996	
3356.313094	-0.748548	
3356.314702	-0.723935	
3356.316381	-0.704333	
3356.317971	-0.669488	
3356.319657	-0.648235	
3356.321243	-0.640069	
3356.322895	-0.619006	
3356.324481	-0.602989	
3356.326180	-0.589325	
3356.327722	-0.579991	
3356.329436	-0.549767	
3356.330974	-0.530785	
3356.332681	-0.514430	
3356.334209	-0.491308	
3356.335924	-0.469281	
3356.337420	-0.458243	
3356.339196	-0.443572	
3356.340686	-0.432482	
3356.342467	-0.422911	
3356.343951	-0.419253	
3356.345748	-0.398294	
3356.347235	-0.375280	
3356.349011	-0.367284	
3356.350492	-0.354812	
3356.352242	-0.321856	
3356.353742	-0.314847	
3356.355492	-0.307822	
3356.357022	-0.299685	
3356.358519	-0.289404	
3356.360125	-0.281299	
3356.361617	-0.276864	
3356.363284	-0.254301	
3356.364790	-0.243655	
3356.366418	-0.234305	
3356.367945	-0.210776	
3356.369583	-0.200556	
3356.371067	-0.197116	
3356.372719	-0.193180	
3356.374202	-0.185752	
3356.375847	-0.178408	
3356.377330	-0.175971	
3356.378962	-0.169058	
3356.380454	-0.148937	
3356.382040	-0.142544	
3356.383607	-0.131764	
3356.385214	-0.119043	
3356.386777	-0.115941	
3356.388366	-0.111191	
3356.389963	-0.113161	
3356.391523	-0.102676	
3356.393136	-0.098337	
3356.394659	-0.102535	
3356.396342	-0.083775	
3356.397826	-0.080709	
3356.399537	-0.075960	
3356.401025	-0.065776	
3356.402757	-0.053953	
3356.404227	-0.058811	
3356.405959	-0.059943	
3356.407445	-0.058598	
3356.409154	-0.058747	
3356.410634	-0.062340	
3356.412346	-0.053216	
3356.413827	-0.043850	
3356.415568	-0.042102	
3356.417069	-0.040482	
3356.418820	-0.024047	
3356.420339	-0.027749	
3356.422089	-0.036240	
3356.423607	-0.032329	
3356.425336	-0.034851	
3356.426865	-0.043532	
3356.428564	-0.039173	
3356.430115	-0.027394	
3356.431815	-0.027765	
3356.433387	-0.031761	
3356.435076	-0.021960	
3356.436640	-0.016868	
3356.438311	-0.025630	
3356.439895	-0.025308	
3356.441540	-0.029300	
3356.443149	-0.035229	
3356.444762	-0.041961	
3356.446392	-0.028893	
3356.448008	-0.021150	
3356.449668	-0.021408	
3356.451273	-0.016643	
3356.452933	-0.010479	
3356.454530	-0.023410	
3356.456220	-0.033469	
3356.457779	-0.026778	
3356.459483	-0.033465	
3356.461042	-0.038488	
3356.462751	-0.032148	
3356.464306	-0.025159	
3356.466010	-0.024957	
3356.467560	-0.015333	
3356.469282	-0.015736	
3356.470761	-0.016377	
3356.472536	-0.026017	
3356.474020	-0.023660	
3356.475808	-0.026190	
3356.477288	-0.036494	
3356.479060	-0.029324	
3356.480549	-0.016405	
3356.482344	-0.018995	
3356.483822	-0.018028	
3356.485587	-0.007462	
3356.487084	-0.008272	
3356.488833	-0.016639	
3356.490352	-0.016570	
3356.492070	-0.011309	
3356.493601	-0.026943	
3356.495337	-0.017601	
3356.496877	-0.007075	
3356.498572	-0.008707	
3356.500114	-0.007797	
3356.501792	0.002891	
3356.503357	0.004981	
3356.505034	-0.007414	
3356.506613	-0.004449	
3356.508238	-0.001315	
3356.509847	-0.015491	
3356.511460	-0.013489	
3356.513087	-0.000070	
3356.514717	0.001835	
3356.516366	0.002029	
3356.517961	0.012748	
3356.519640	0.022065	
3356.521233	0.009888	
3356.522931	0.008546	
3356.524501	0.014134	
3356.526182	0.004953	
3356.527750	-0.004143	
3356.529449	0.008732	
3356.531009	0.013666	
3356.532721	0.013973	
3356.534270	0.015793	
3356.535996	0.026831	
3356.537536	0.018831	
3356.539262	0.016132	
3356.540760	0.011592	
3356.542511	0.012555	
3356.543996	0.003297	
3356.545783	0.013469	
3356.547271	0.025103	
3356.549071	0.022339	
3356.550585	0.013413	
3356.552090	0.023395	
3356.553678	0.028084	
3356.555182	0.011946	
3356.556785	0.021433	
3356.558287	0.020434	
3356.559968	0.007596	
3356.561448	0.008438	
3356.563066	0.010851	
3356.564577	0.011000	
3356.566213	0.008695	
3356.567695	0.021510	
3356.569343	0.015689	
3356.570825	0.015733	
3356.572457	0.006681	
3356.573942	0.010706	
3356.575579	0.007809	
3356.577093	-0.002330	
3356.578659	-0.001178	
3356.580211	0.009425	
3356.581812	0.001324	
3356.583376	0.002307	
3356.584955	0.012865	
3356.586558	0.009235	
3356.588111	0.002161	
3356.589729	-0.006685	
3356.591236	-0.010806	
3356.592905	-0.015777	
3356.594394	-0.022846	
3356.596106	-0.011478	
3356.597594	-0.007164	
3356.599324	-0.010717	
3356.600810	-0.008123	
3356.602522	-0.006209	
3356.604001	-0.007664	
3356.605705	-0.014633	
3356.607184	-0.010544	
3356.608943	-0.015821	
3356.610431	-0.029038	
3356.612191	-0.024466	
3356.613702	-0.012401	
3356.615465	-0.012606	
3356.616979	-0.013899	
3356.618693	-0.005782	
3356.620219	-0.005392	
3356.621917	-0.014625	
3356.623458	-0.020611	
3356.625125	-0.015817	
3356.626684	-0.020989	
3356.628338	-0.023902	
3356.629928	-0.014282	
3356.631574	-0.011301	
3356.633182	-0.010177	
3356.634816	-0.002068	
3356.636417	0.003265	
3356.638052	-0.003921	
3356.639688	-0.008977	
3356.641285	-0.011362	
3356.642944	-0.011474	
3356.644527	-0.020804	
3356.646193	-0.004526	
3356.647774	0.001529	
3356.649459	-0.005827	
3356.651043	-0.000727	
3356.652757	0.011515	
3356.654312	0.007285	
3356.656005	0.000123	
3356.657538	0.000280	
3356.659257	-0.003377	
3356.660767	-0.011197	
3356.662512	-0.002225	
3356.664007	0.006411	
3356.665796	0.005312	
3356.667279	0.010448	
3356.669071	0.019854	
3356.670545	0.026456	
3356.672315	0.012671	
3356.673799	0.015660	
3356.675547	0.010714	
3356.677049	0.002721	
3356.678775	0.010831	
3356.680299	0.019125	
3356.682044	0.020071	
3356.683563	0.025131	
3356.685285	0.030851	
3356.686821	0.029949	
3356.688519	0.022984	
3356.690070	0.019753	
3356.691769	0.018033	
3356.693343	0.017240	
3356.695036	0.012007	
3356.696603	0.016615	
3356.698274	0.020809	
3356.699861	0.015737	
3356.701493	0.024023	
3356.703104	0.031903	
3356.704719	0.022053	
3356.706356	0.021111	
3356.707954	0.018118	
3356.709631	0.008273	
3356.711226	0.011249	
3356.712880	0.015487	
3356.714465	0.021691	
3356.716157	0.021066	
3356.717721	0.026867	
3356.719427	0.034509	
3356.720970	0.024325	
3356.722683	0.019354	
3356.724240	0.018404	
3356.725952	0.012389	
3356.727496	0.005634	
3356.729234	0.006057	
3356.730733	0.018380	
3356.732497	0.020841	
3356.733976	0.028466	
3356.735759	0.028019	
3356.737237	0.030078	
3356.739006	0.024696	
3356.740485	0.025711	
3356.742250	0.021614	
3356.743757	0.015133	
3356.745511	0.022436	
3356.747041	0.030392	
3356.748535	0.031335	
3356.750136	0.033953	
3356.751632	0.046646	
3356.753286	0.048258	
3356.754781	0.037691	
3356.756415	0.039085	
3356.757940	0.050989	
3356.759582	0.044805	
3356.761066	0.043766	
3356.762726	0.047448	
3356.764195	0.062167	
3356.765842	0.059762	
3356.767324	0.077157	
3356.768970	0.087590	
3356.770452	0.088408	
3356.772036	0.074558	
3356.773591	0.088589	
3356.775134	0.099345	
3356.776705	0.095216	
3356.778288	0.101971	
3356.779898	0.120445	
3356.781470	0.128030	
3356.783089	0.136526	
3356.784608	0.145050	
3356.786281	0.160938	
3356.787759	0.155725	
3356.789481	0.162271	
3356.790965	0.177607	
3356.792686	0.176463	
3356.794167	0.178944	
3356.795898	0.191549	
3356.797385	0.213838	
3356.799097	0.218776	
3356.800574	0.229689	
3356.802275	0.249621	
3356.803762	0.249537	
3356.805532	0.256332	
3356.807029	0.267620	
3356.808754	0.283250	
3356.810279	0.280140	
3356.812016	0.298722	
3356.813541	0.324810	
3356.815284	0.331900	
3356.816825	0.339807	
3356.818505	0.365621	
3356.820063	0.377553	
3356.821750	0.379579	
3356.823323	0.394677	
3356.825005	0.400248	
3356.826587	0.404482	
3356.828245	0.419882	
3356.829830	0.440878	
3356.831488	0.458534	
3356.833109	0.469495	
3356.834734	0.499035	
3356.836368	0.518105	
3356.838006	0.516038	
3356.839656	0.530262	
3356.841255	0.552051	
3356.842906	0.559709	
3356.844506	0.575806	
3356.846182	0.597080	
3356.847744	0.621197	
3356.849447	0.632678	
3356.850998	0.662919	
3356.852714	0.690118	
3356.854263	0.697716	
3356.855959	0.714227	
3356.857515	0.734252	
3356.859245	0.757439	
3356.860733	0.774725	
3356.862509	0.802762	
3356.863987	0.839371	
3356.865763	0.863191	
3356.867243	0.892972	
3356.869016	0.932011	
3356.870497	0.958239	
3356.872278	0.982840	
3356.873764	1.003332	
3356.875522	1.043736	
3356.877019	1.074972	
3356.878777	1.120407	
3356.880283	1.163534	
3356.882017	1.201445	
3356.883551	1.243968	
3356.885279	1.297472	
3356.886819	1.332837	
3356.888523	1.378324	
3356.890072	1.436453	
3356.891756	1.487943	
3356.893327	1.537266	
3356.894997	1.583894	
3356.896576	1.613087	
3356.898244	1.618525	
3356.899848	1.618445	
3356.901510	1.618622	
3356.903097	1.618400	
3356.904741	1.618521	
3356.906346	1.618505	
3356.907974	1.618513	
3356.909653	1.618448	
3356.911234	1.618565	
3356.912902	1.618428	
3356.914492	1.618577	
3356.916188	1.618505	
3356.917788	1.618553	
3356.919454	1.618485	
3356.921019	1.618517	
3356.922739	1.618509	
3356.924289	1.618549	
3356.925980	1.618436	
3356.927527	1.618517	
3356.929257	1.618444	
3356.930765	1.618501	
3356.932511	1.618477	
3356.934005	1.618545	
3356.935798	1.618573	
3356.937278	1.618505	
3356.939074	1.618553	
3356.940559	1.618424	
3356.942334	1.618525	
3356.943849	1.618424	
3356.945329	1.618493	
3356.946927	1.618553	
3356.948463	1.618513	
3356.950065	1.618428	
3356.951564	1.618493	
3356.953218	1.618497	
3356.954708	1.618505	
3356.956359	1.618549	
3356.957876	1.618396	
3356.959504	1.618541	
3356.960979	1.618541	
3356.962614	1.618489	
3356.964098	1.618477	
3356.965734	1.618440	
3356.967243	1.618553	
3356.968862	1.618485	
3356.970383	1.618456	
3356.971950	1.618573	
3356.973506	1.618553	
3356.975143	1.618614	
3356.976695	1.618477	
3356.978288	1.618577	
3356.979896	1.618529	
3356.981465	1.618577	
3356.983077	1.618489	
3356.984616	1.618626	
3356.986292	1.618606	
3356.987769	1.618537	
3356.989494	1.618481	
3356.990967	1.618513	
3356.992666	1.618529	
3356.994143	1.618553	
3356.995848	1.618557	
3356.997335	1.618585	
3356.999037	1.618517	
3357.000527	1.618561	
3357.002320	1.618513	
3357.003797	1.618537	
3357.005588	1.618622	
3357.007072	1.618469	
3357.008828	1.618529	
3357.010324	1.618489	
3357.012066	1.618638	
3357.013586	1.618549	
3357.015312	1.618626	
3357.016849	1.618517	
3357.018560	1.618634	
3357.020104	1.618469	
3357.021809	1.618557	
3357.023358	1.618465	
3357.025037	1.618537	
3357.026605	1.618448	
3357.028281	1.618581	
3357.029881	1.618589	
3357.031536	1.618581	
3357.033124	1.618469	
3357.034758	1.618533	
3357.036367	1.618517	
3357.038012	1.618553	
3357.039646	1.618553	
3357.041239	1.618630	
3357.042912	1.618485	
3357.044489	1.618590	
3357.046182	1.618501	
3357.047778	1.618666	
3357.049454	1.618408	
3357.051031	1.618565	
3357.052732	1.618593	
3357.054280	1.618497	
3357.055993	1.618553	
3357.057537	1.618517	
3357.059259	1.618465	
3357.060782	1.618573	
3357.062520	1.618497	
3357.064008	1.618461	
3357.065790	1.618582	
3357.067268	1.618477	
3357.069059	1.618485	
3357.070545	1.618537	
3357.072335	1.618529	
3357.073815	1.618477	
3357.075573	1.618537	
3357.077060	1.618553	
3357.078824	1.618517	
3357.080329	1.618493	
3357.082104	1.618428	
3357.083614	1.616378	
3357.085329	1.392734	
3357.086849	1.166213	
3357.088548	0.944241	
3357.090099	0.734752	
3357.091820	0.506813	
3357.093375	0.297872	
3357.095077	0.071948	
3357.096628	-0.131756	
3357.098301	-0.351215	
3357.099872	-0.550613	
3357.101524	-0.759127	
3357.103116	-0.953006	
3357.104744	-1.168654	
3357.106362	-1.365900	
3357.107976	-1.558313	
3357.109648	-1.638839	
3357.111252	-1.639568	
3357.112891	-1.639717	
3357.114495	-1.639597	
3357.116177	-1.639725	
3357.117753	-1.639593	
3357.119455	-1.639645	
3357.121012	-1.639548	
3357.122711	-1.639669	
3357.124268	-1.639540	
3357.125960	-1.639737	
3357.127512	-1.639609	
3357.129234	-1.639762	
3357.130740	-1.639649	
3357.132485	-1.639633	
3357.133964	-1.639645	
3357.135761	-1.639621	
3357.137251	-1.639729	
3357.138785	-1.639653	
3357.140318	-1.639758	
3357.141883	-1.639713	
3357.143455	-1.639830	
3357.144936	-1.639633	
3357.146591	-1.639802	
3357.148084	-1.639701	
3357.149721	-1.639693	
3357.151237	-1.639746	
3357.152862	-1.639754	
3357.154341	-1.639750	
3357.155981	-1.639810	
3357.157467	-1.639770	
3357.159113	-1.639629	
3357.160614	-1.639742	
3357.162227	-1.639721	
3357.163757	-1.639750	
3357.165335	-1.639738	
3357.166872	-1.639818	
3357.168410	-1.639701	
3357.169989	-1.639818	
3357.171592	-1.639750	
3357.173188	-1.639818	
3357.174759	-1.639705	
3357.176361	-1.639842	
3357.177946	-1.639665	
3357.179617	-1.639834	
3357.181092	-1.639862	
3357.182797	-1.639854	
3357.184269	-1.639649	
3357.185987	-1.639838	
3357.187475	-1.639782	
3357.189189	-1.639818	
3357.190673	-1.639826	
3357.192365	-1.639834	
3357.193849	-1.639746	
3357.195632	-1.639729	
3357.197119	-1.639742	
3357.198922	-1.639790	
3357.200398	-1.639794	
3357.202157	-1.639766	
3357.203662	-1.639717	
3357.205406	-1.639709	
3357.206924	-1.639814	
3357.208678	-1.639790	
3357.210207	-1.639685	
3357.211933	-1.639701	
3357.213470	-1.639858	
3357.215179	-1.639737	
3357.216725	-1.639814	
3357.218432	-1.639673	
3357.219997	-1.639854	
3357.221667	-1.639645	
3357.223242	-1.639806	
3357.224895	-1.639717	
3357.226490	-1.639810	
3357.228137	-1.639625	
3357.229734	-1.639721	
3357.231364	-1.639637	
3357.232991	-1.639742	
3357.234598	-1.639669	
3357.236274	-1.639665	
3357.237859	-1.639681	
3357.239534	-1.639734	
3357.241116	-1.639609	
3357.242797	-1.639774	
3357.244382	-1.639645	
3357.246077	-1.639601	
3357.247630	-1.639633	
3357.249346	-1.639693	
3357.250890	-1.639649	
3357.252601	-1.639693	
3357.254134	-1.639669	
3357.255848	-1.639701	
3357.257345	-1.639681	
3357.259112	-1.639536	
3357.260599	-1.639560	
3357.262383	-1.639734	
3357.263870	-1.639693	
3357.265654	-1.639637	
3357.267136	-1.639601	
3357.268904	-1.639572	
3357.270381	-1.639629	
3357.272133	-1.639597	
3357.273644	-1.639661	
3357.275382	-1.639633	
3357.276897	-1.639725	
3357.278624	-1.639617	
3357.280146	-1.639645	
