time (s)	magX	magY	magZ
4586.054437	-336.064880	111.199303	615.884888
4586.057343	-340.389832	114.063110	597.007080
4586.060692	-342.902985	117.277618	579.122742
4586.064004	-345.883698	120.082993	561.355347
4586.067273	-347.753967	122.479256	543.763306
4586.070614	-348.747528	124.466385	526.521912
4586.073958	-350.150208	126.102859	509.572784
4586.077287	-350.500885	127.388664	491.805389
4586.080206	-350.150208	128.323792	474.680878
4586.083583	-350.325531	129.609589	459.543549
4586.086872	-348.689087	129.784927	443.237305
4586.090236	-348.279968	130.135590	428.392151
4586.093518	-347.169495	129.317368	413.079498
4586.096843	-344.481018	129.142014	399.227936
4586.100180	-342.786102	128.674454	384.616608
4586.103521	-339.863831	128.732910	370.239044
4586.106422	-337.993591	127.856224	356.738159
4586.109746	-334.720642	126.628868	344.230865
4586.113089	-331.097015	125.284630	331.022186
4586.116411	-327.940979	123.940392	317.696686
4586.119744	-324.551147	122.537689	305.364685
4586.123080	-320.518402	121.427231	294.318512
4586.126433	-316.894806	120.258324	282.921692
4586.129743	-313.388092	118.621857	270.940399
4586.133082	-308.829346	117.394501	260.537109
4586.136411	-305.030396	115.699593	250.835190
4586.139759	-301.056091	114.238457	240.431915
4586.143079	-296.205139	112.485092	231.898895
4586.146417	-291.763306	111.549965	222.196976
4586.149742	-286.853882	110.205727	212.670364
4586.153078	-283.405609	108.510811	204.078903
4586.156414	-277.911743	106.932785	196.597900
4586.159741	-273.762146	105.646988	189.701340
4586.163074	-268.969604	104.068962	180.350082
4586.166410	-263.943329	102.958496	173.453537
4586.169776	-259.384583	101.848038	166.615417
4586.173082	-255.527191	100.620689	159.718887
4586.176412	-250.150208	98.867325	152.939209
4586.179747	-245.825256	97.873756	146.919342
4586.183075	-241.383423	96.354179	140.665695
4586.186410	-237.175354	94.483925	136.106949
4586.189745	-232.733490	93.256577	130.145523
4586.193072	-228.525421	91.970779	124.827003
4586.196407	-224.317352	90.626534	120.092926
4586.199742	-219.758636	89.866745	115.125069
4586.203077	-217.011688	88.288719	110.683228
4586.206406	-213.563416	86.710693	106.884277
4586.209738	-209.238464	85.600235	102.383980
4586.213099	-205.673279	84.022202	99.169495
4586.216407	-201.932800	83.028641	95.136757
4586.219741	-198.542938	82.035065	91.279366
4586.223070	-195.270020	80.515488	88.357101
4586.226403	-192.172394	78.879013	84.908821
4586.229738	-188.431915	77.534767	80.934540
4586.233072	-185.217407	76.132080	78.479836
4586.237768	-179.255981	73.560486	73.395088
4586.240609	-176.158386	72.566917	70.648155
4586.244000	-173.820557	71.982468	67.609001
4586.247367	-170.547638	69.995323	65.738747
4586.250604	-167.742249	68.943314	63.459377
4586.253922	-165.053772	67.774399	60.946232
4586.257289	-162.891296	66.663940	57.965515
4586.260608	-159.969025	65.845703	56.796608
4586.263498	-157.572754	64.209236	54.517239
4586.266859	-155.293396	63.390999	52.530098
4586.270177	-152.254242	62.163643	50.893627
4586.273543	-150.033295	60.527176	48.322033
4586.276878	-148.163055	60.118065	46.568672
4586.280188	-145.474579	59.358269	44.347748
4586.283489	-143.253662	58.364693	43.003506
4586.286831	-141.500305	57.488022	41.893044
4586.289730	-139.454712	56.962006	40.315018
4586.293060	-136.707764	56.786674	39.321449
4586.296394	-135.538879	55.442429	37.275860
4586.299779	-132.675049	54.448860	35.814728
4586.303069	-131.097015	53.981293	34.528931
4586.306395	-128.817657	52.812393	32.950905
4586.309735	-127.531853	52.403275	32.015778
4586.313060	-125.252480	52.461716	32.132671
4586.316397	-123.440666	51.935707	29.970194
4586.319728	-121.979546	51.059029	29.268850
4586.323059	-120.401512	50.007011	28.684397
4586.326446	-118.589714	49.948570	27.807716
4586.329736	-117.245476	49.481003	26.229691
4586.333064	-116.193443	48.954994	25.002338
4586.336398	-114.673882	48.253654	24.067213
4586.339725	-113.388069	47.493866	23.950323
4586.343092	-111.926933	47.026299	23.365870
4586.346389	-110.758034	47.084747	22.489187
4586.349732	-109.413795	46.617187	21.846289
4586.353056	-108.595558	46.441849	21.904734
4586.356394	-106.900642	45.682053	21.554062
4586.359730	-105.907074	45.331383	20.735828
4586.363057	-105.497955	44.863823	20.209820
4586.366393	-104.387489	44.922264	19.625366
4586.369721	-102.926361	43.870247	19.917593
4586.373059	-102.108124	43.694916	19.274694
4586.376387	-101.640556	42.876678	18.164232
4586.379724	-100.705437	42.876678	18.164232
4586.383053	-100.004089	42.350670	18.105785
4586.386417	-98.659851	42.058449	17.404442
4586.389719	-97.724724	41.590881	17.053770
4586.393073	-96.322037	41.883110	16.527761
4586.396388	-96.146690	41.181763	16.001753
4586.399721	-95.620689	41.123322	16.703098
4586.403052	-94.919350	40.655754	16.293980
4586.406392	-93.867325	40.071304	15.534190
4586.409722	-92.990646	39.428406	15.183518
4586.413057	-93.458214	39.486847	13.956165
4586.417679	-91.763290	39.077736	14.715956
4586.420593	-91.529510	38.902397	14.014611
4586.423925	-90.886620	38.785507	13.196376
4586.427318	-90.302155	38.493279	13.780829
4586.430691	-89.951492	38.434837	12.728813
4586.433943	-89.308594	37.616600	12.845704
4586.437239	-89.308594	37.675049	13.196376
4586.440574	-88.139687	37.499710	12.378140
4586.443472	-87.964348	37.967270	12.319695
4586.446804	-87.146118	37.382820	12.319695
4586.450143	-86.795441	37.558151	12.611923
4586.453502	-86.386322	37.558151	12.319695
4586.456829	-86.269424	37.265930	11.793688
4586.460162	-86.094093	37.499710	12.319695
4586.463479	-85.509644	37.441261	11.326125
4586.466378	-85.684982	37.382820	11.501461
4586.469714	-85.275864	37.207481	12.027469
4586.473070	-85.392746	37.558151	11.735242
4586.476382	-85.217415	37.382820	11.267679
4586.479715	-84.749855	37.558151	11.092343
4586.483045	-84.516075	37.558151	11.910578
4586.486377	-84.983635	37.090591	11.559906
4586.489709	-84.165398	37.032143	10.917007
4586.493045	-84.691406	37.149040	11.793688
4586.496378	-84.866737	37.382820	11.793688
4586.499707	-84.399178	37.441261	12.261250
4586.503043	-84.632957	37.791939	12.787259
4586.506377	-84.983635	37.791939	12.319695
4586.509709	-84.340736	37.499710	12.027469
4586.513050	-84.749855	37.850380	12.845704
4586.516401	-84.223839	38.084160	12.085914
4586.519720	-84.983635	37.616600	12.144360
4586.523044	-85.626534	37.967270	12.202805
4586.526375	-85.626534	37.850380	12.261250
4586.529705	-85.801865	38.025719	11.793688
4586.533036	-86.210991	37.908829	12.611923
4586.536375	-85.860313	37.967270	12.319695
4586.539702	-85.684982	37.616600	12.261250
4586.543043	-86.152542	38.084160	12.261250
4586.546377	-86.561653	38.142609	12.787259
4586.549704	-87.379898	38.551727	12.495032
4586.553037	-87.379898	38.727058	13.254822
4586.556376	-87.847458	38.668617	13.722384
4586.559719	-88.022789	38.668617	14.131501
4586.563038	-88.548805	39.077736	13.547049
4586.566373	-88.841034	39.253067	13.780829
4586.569703	-88.724136	39.954414	14.248392
4586.573040	-89.308594	39.662186	14.540619
4586.576366	-90.828171	40.831093	14.599064
4586.579701	-90.477501	40.305084	15.066628
4586.583099	-91.354179	41.357101	14.832847
4586.586366	-91.880188	41.415550	15.300409
4586.589708	-92.581535	41.473991	15.475745
4586.593040	-92.523087	41.941551	15.475745
4586.597688	-93.691994	43.110458	15.417299
4586.601033	-94.744003	42.993568	16.001753
4586.603961	-95.211563	44.220924	16.352425
4586.607238	-95.796028	44.104034	16.761543
4586.610725	-96.731148	45.097603	17.170660
4586.613971	-97.841606	45.565163	18.398014
4586.617214	-98.893631	45.915840	18.690241
4586.620550	-99.419640	46.383400	18.514904
4586.623887	-100.705437	46.617187	19.450029
4586.626786	-101.056114	47.610756	20.209820
4586.630123	-101.932785	47.552307	20.385155
4586.633449	-103.218582	48.312096	21.378727
4586.636806	-104.095268	49.188782	21.554062
4586.640145	-105.614838	50.065460	21.729399
4586.643485	-106.725304	50.416130	22.372297
4586.646792	-107.543541	51.117477	23.365870
4586.649701	-109.004677	51.585037	24.184103
4586.653051	-109.881355	51.935707	24.943893
4586.656364	-111.342491	52.520164	25.411455
4586.659697	-112.336067	53.455292	25.937464
4586.663025	-114.206322	54.098190	26.463472
4586.666367	-115.316765	54.857979	27.690825
4586.669698	-116.310341	55.150208	29.385740
4586.673033	-118.180595	55.734657	29.151958
4586.676361	-119.466393	56.260666	30.496201
4586.679689	-121.044426	56.611336	31.372881
4586.683028	-123.265343	58.540039	32.366451
4586.686358	-125.018700	58.423141	33.126240
4586.689698	-126.070717	59.533600	34.295151
4586.693025	-127.940971	60.527176	35.639393
4586.696366	-130.278778	61.170082	36.632961
4586.699689	-131.389252	62.514320	38.795441
4586.703024	-133.084167	63.157219	39.730564
4586.706356	-134.545288	64.209236	40.724136
4586.709697	-136.240204	65.144363	42.652832
4586.713021	-138.636475	66.897720	44.055523
4586.716358	-140.506714	68.008179	45.691994
4586.719692	-142.493866	69.469315	46.860901
4586.723024	-144.597900	70.521332	48.205143
4586.726357	-146.818817	72.333138	49.724720
4586.729688	-149.156616	73.911163	50.718292
4586.733056	-150.793091	75.021622	52.588547
4586.736355	-152.955566	76.658096	54.867908
4586.739688	-156.286957	78.294563	56.621269
4586.743025	-157.397430	79.755699	59.718876
4586.746358	-160.085907	81.509056	62.056690
4586.749687	-163.066620	82.970192	62.991814
4586.753018	-165.404449	84.431328	66.907654
4586.756354	-168.560486	86.535355	68.777908
4586.759680	-171.132080	87.879601	71.583282
4586.763018	-173.352997	90.100525	74.213326
4586.766356	-176.041504	91.736992	77.369370
4586.769680	-179.665100	93.548798	80.350090
4586.773030	-182.879578	95.126823	84.090591
4586.777656	-188.315002	98.867325	90.578026
4586.780990	-191.821747	100.620689	94.552307
4586.783899	-194.627106	102.841606	98.760368
4586.787246	-197.666290	104.536530	102.793106
4586.790604	-201.815887	106.815895	107.059608
4586.793931	-204.738159	108.393921	110.683228
4586.797275	-208.186432	110.848625	116.586205
4586.800548	-212.102264	113.069550	121.203384
4586.803861	-215.959656	114.822906	126.463470
4586.806769	-219.291077	117.160721	131.898895
4586.810099	-222.739349	119.498535	136.340729
4586.813439	-225.778473	121.310349	142.477493
4586.816773	-229.402100	123.823494	147.796021
4586.820156	-233.084167	125.985977	154.984802
4586.823453	-237.175354	128.440674	160.712448
4586.826792	-240.565155	130.720047	167.199890
4586.829682	-244.831696	133.525421	174.213318
4586.833013	-248.455292	136.272354	181.694321
4586.836347	-252.020447	138.727066	188.883118
4586.839676	-255.410309	141.298660	196.130341
4586.843010	-259.033905	144.396255	204.546463
4586.846345	-262.715973	147.084747	212.611923
4586.849678	-265.638245	150.065445	220.443588
4586.853003	-269.261841	152.520157	229.444183
4586.856339	-273.353027	155.442429	238.269440
4586.859675	-276.099945	159.066040	247.854477
4586.863049	-279.431335	162.105194	257.907074
4586.866346	-282.002930	165.436584	268.485687
4586.869676	-284.983643	168.709518	278.304504
4586.873000	-288.081238	172.333145	289.409119
4586.876340	-290.243713	175.196960	301.448853
4586.879678	-292.990631	178.119217	312.611938
4586.883005	-294.685547	181.684387	324.710114
4586.886342	-296.848053	184.606659	337.743408
4586.889667	-299.127411	187.587372	350.601410
4586.893011	-300.530121	190.626526	364.160706
4586.896349	-301.757477	193.373459	376.668030
4586.899674	-302.809479	196.120392	390.636475
4586.903008	-304.212158	197.815323	406.066010
4586.906379	-304.212158	200.854477	421.261810
4586.909669	-304.095276	203.367615	436.282288
4586.913021	-304.212158	204.536530	451.594971
4586.916341	-304.504364	205.939209	467.609009
4586.919668	-303.218597	208.393921	484.616608
4586.922999	-302.283447	208.919922	501.156647
4586.926338	-299.419647	210.088837	518.514954
4586.929668	-298.133850	210.614838	534.587402
4586.933000	-295.971375	210.439514	552.354797
4586.936336	-292.230865	210.790176	570.239075
4586.939669	-288.899475	211.023972	587.305115
4586.943004	-284.574524	210.205719	605.598511
4586.946341	-279.139099	209.329056	622.547668
4586.949687	-273.703674	208.043259	640.022827
4586.952998	-266.222687	206.699005	658.316223
4586.957689	-252.137360	203.426071	694.260071
4586.960569	-243.370544	201.146698	710.507935
4586.963852	-234.603729	198.399765	727.047913
4586.967182	-224.492706	195.828171	744.581604
4586.970542	-214.498535	192.964340	760.770935
4586.973884	-203.393921	189.399170	777.427856
4586.977252	-191.237274	185.483337	790.870300
4586.980589	-178.905334	181.392166	806.475220
4586.983848	-165.579773	177.710114	821.261841
4586.986773	-151.026886	172.566925	834.470520
4586.990093	-136.766205	168.066620	847.912964
4586.993459	-121.336632	162.280548	858.725342
4586.996750	-106.199303	157.546463	870.355957
4587.000092	-89.367035	151.526581	879.940979
4587.003425	-73.060783	145.798950	891.220947
4587.006772	-56.754532	139.837524	898.409729
4587.009661	-39.162476	133.291641	906.650513
4587.012997	-22.096436	126.570419	913.313293
4587.016324	-4.270601	119.673874	919.157837
4587.019674	12.678552	112.368210	923.424316
4587.022997	32.140854	105.354767	926.872620
4587.026327	49.732906	96.938637	927.866150
4587.029659	67.734070	90.100525	929.853333
4587.032993	85.443016	83.145531	930.262451
4587.036350	103.502632	74.144943	928.801331
4587.039660	120.860901	66.430161	925.703674
4587.042989	137.693176	57.838692	921.086548
4587.046323	154.759216	49.364113	916.820007
4587.049659	171.474579	41.357101	911.501465
4587.052990	187.254822	33.350090	904.546509
4587.056327	202.859741	24.583284	897.065491
4587.059655	217.880188	16.342491	888.064941
4587.062989	232.023956	9.153711	878.012329
4587.066317	246.343079	0.562244	866.907654
4587.069654	259.084167	-7.094097	856.504395
4587.072988	270.890106	-14.691992	843.062012
4587.076321	283.280518	-21.880772	829.736511
4587.079659	293.976044	-28.660433	815.417358
4587.083050	304.437744	-35.381645	802.208679
4587.086321	313.730560	-41.869080	786.662231
4587.089659	322.731140	-48.473404	770.765076
4587.092986	330.913483	-53.733490	755.101746
4587.096321	338.628296	-59.811806	736.925232
4587.099649	345.466400	-64.428993	721.904785
4587.102984	351.077148	-69.046173	705.364746
4587.106316	356.921661	-73.604912	688.707825
4587.109683	361.831085	-77.637642	670.414429
4587.112984	365.805389	-80.852135	652.705444
4587.116312	368.610748	-84.767975	636.749878
4587.119651	372.526581	-87.398018	618.164246
4587.122994	374.572174	-90.261833	601.273560
4587.126316	375.916412	-92.482758	583.506165
4587.129653	377.319122	-94.879021	566.557007
4587.132976	378.137329	-97.158394	550.367676
4587.137681	378.312683	-100.314430	516.820007
4587.140605	378.312683	-101.132675	500.279938
4587.143832	377.085327	-101.717117	483.389221
4587.147161	375.273499	-102.535362	467.141418
4587.150491	373.111053	-102.886024	452.120972
4587.153877	372.409698	-104.230278	436.691406
4587.157210	369.078308	-104.580948	421.670959
4587.160569	366.214478	-104.756287	407.819397
4587.163428	363.409119	-104.639397	394.610748
4587.166734	360.545288	-105.106956	379.707184
4587.170067	357.681458	-105.106956	366.732330
4587.173407	352.947388	-105.340736	353.932800
4587.176744	349.849792	-105.399185	340.957916
4587.180075	345.174164	-105.106956	328.275299
4587.183429	341.609009	-104.405609	316.001770
4587.186736	337.459351	-104.113380	304.429565
4587.189642	332.491516	-104.171829	293.909424
4587.192978	329.043243	-103.879601	282.804779
4587.196305	323.023376	-103.821152	273.102875
4587.199640	319.224426	-103.002922	262.641144
4587.202971	314.431885	-102.769142	252.997665
4587.206318	309.113373	-102.476913	243.295731
4587.209634	304.320862	-101.541786	234.470474
4587.212972	299.937469	-100.781998	226.463470
4587.216311	295.144928	-100.665108	217.521317
4587.219641	291.170654	-99.671539	209.981888
4587.222974	285.209229	-99.262421	202.033310
4587.226341	280.592041	-98.385742	194.902985
4587.229643	276.734650	-97.450623	187.480423
4587.232969	272.351257	-96.573929	181.577438
4587.236300	267.558746	-96.281715	174.037994
4587.239644	262.707794	-94.762131	167.842773
4587.242974	258.733490	-93.417885	161.472229
4587.246303	254.466980	-92.365868	155.043243
4587.249639	250.551147	-91.196960	149.841614
4587.252972	246.635284	-90.378723	144.815308
4587.256303	242.544128	-89.735832	138.795441
4587.259633	238.745178	-87.865578	133.944473
4587.262969	233.660431	-86.287552	129.561081
4587.266304	230.971954	-85.586212	124.885452
4587.269632	227.465210	-84.358856	120.151375
4587.272977	223.315582	-83.306839	116.177094
4587.276308	219.984222	-81.611923	111.852135
4587.279633	217.354187	-80.735245	108.637642
4587.282992	213.263000	-79.507896	105.130920
4587.286297	210.165405	-78.689659	101.215073
4587.289629	207.360016	-77.696083	98.234367
4587.292969	203.268860	-76.351837	94.026299
4587.296305	199.879028	-75.475166	91.162476
4587.299632	196.839844	-74.890709	88.064873
4587.302961	193.508484	-73.546463	85.493279
4587.306297	190.352417	-72.611336	82.863235
4587.309632	187.488617	-71.909996	79.999413
4587.312958	185.150787	-71.150208	77.544708
4587.317246	179.773834	-69.279961	71.933952
4587.320550	177.085327	-68.578613	69.654587
4587.323892	174.864410	-68.461723	67.725891
4587.327180	172.526611	-67.234367	65.037407
4587.330471	169.779663	-66.474579	62.407360
4587.333802	167.850983	-66.182350	60.595558
4587.337173	164.461121	-65.422562	59.192871
4587.340493	162.473999	-64.838104	57.088837
4587.343432	160.019287	-64.195213	54.809467
4587.346751	158.207489	-63.902985	54.458794
4587.350082	155.986572	-62.792526	52.062534
4587.353383	153.707184	-62.850967	50.893627
4587.356750	151.720032	-61.798950	49.140266
4587.360051	150.025116	-61.331383	47.386906
4587.363387	147.804214	-60.513153	46.042664
4587.366711	146.343079	-60.396263	44.698421
4587.369642	143.946808	-60.162476	43.061951
4587.372956	142.427246	-59.636475	42.535942
4587.376294	140.673874	-58.759789	41.308590
4587.379630	139.271179	-58.759789	40.373463
4587.382954	136.991821	-57.766212	39.263004
4587.386294	136.056702	-57.707771	37.684978
4587.389623	134.654007	-57.006432	36.925190
4587.392952	133.134430	-56.012856	36.106956
4587.396283	131.556396	-55.895966	34.821156
4587.399656	129.803040	-56.129745	34.938049
4587.402951	129.101685	-54.610168	33.886028
4587.406285	128.458801	-54.434837	33.476913
4587.409624	126.646996	-54.025711	32.600231
4587.412970	125.536522	-53.090591	31.548218
4587.416286	124.718300	-52.330803	30.671537
4587.419618	123.607841	-52.272354	30.262421
4587.422955	122.906494	-52.213913	30.028639
4587.426291	121.503807	-51.395676	28.918177
4587.429618	120.685562	-50.869667	28.333723
4587.432958	120.334892	-50.460548	28.041498
4587.436285	118.815315	-50.577446	27.398600
4587.439617	118.230858	-50.109879	26.580362
4587.442973	117.821739	-49.759209	26.521917
4587.446281	116.594391	-49.174751	25.703682
4587.449613	115.776161	-49.700760	25.236120
4587.452946	115.191704	-49.057861	25.177675
4587.456288	114.373466	-49.116310	25.119228
4587.459612	113.672127	-49.233200	24.184103
4587.462944	113.146111	-48.824074	23.716541
4587.466284	112.210991	-48.882523	23.073643
4587.469619	112.152542	-48.064293	23.015198
4587.472947	111.158974	-48.707184	22.372297
4587.476279	110.457626	-48.356514	22.080070
4587.479612	109.873177	-48.239624	21.729399
4587.482941	109.113380	-48.298073	21.904734
4587.486275	108.704269	-48.239624	21.378727
4587.489613	108.353600	-47.713615	21.495617
4587.492943	107.827583	-47.888954	20.735828
4587.497616	107.301582	-47.772064	21.554062
4587.500563	106.775566	-48.239624	20.735828
4587.503892	106.717125	-48.064293	20.385155
4587.507205	106.483345	-47.830505	20.677382
4587.510464	106.249565	-47.772064	20.034483
4587.513806	105.957336	-47.070717	19.917593
4587.517128	105.606667	-47.479836	19.859148
4587.520474	105.548218	-47.538277	19.800703
4587.523813	105.431328	-47.362946	20.385155
4587.526719	105.372879	-46.486267	19.391584
4587.530076	105.372879	-47.187607	19.391584
4587.533383	106.015785	-47.596725	19.976038
4587.536698	105.372879	-47.304497	20.209820
4587.540036	105.314438	-47.129166	20.502047
4587.543392	105.431328	-47.304497	19.859148
