time (s)	det(V)
4224.600270	-0.592286	
4224.602035	-0.566992	
4224.603543	-0.544188	
4224.605287	-0.520453	
4224.606805	-0.510934	
4224.608535	-0.498301	
4224.610066	-0.485108	
4224.611781	-0.468238	
4224.613330	-0.460241	
4224.615025	-0.437292	
4224.616589	-0.419664	
4224.618280	-0.406036	
4224.619839	-0.390290	
4224.621516	-0.363872	
4224.623101	-0.356867	
4224.624757	-0.350619	
4224.626386	-0.337647	
4224.627888	-0.327021	
4224.629529	-0.322106	
4224.631004	-0.310730	
4224.632642	-0.290004	
4224.634119	-0.279035	
4224.635764	-0.267663	
4224.637246	-0.255514	
4224.638884	-0.238660	
4224.640395	-0.238007	
4224.641988	-0.230188	
4224.643518	-0.219738	
4224.645079	-0.217350	
4224.646666	-0.217100	
4224.648157	-0.210063	
4224.649818	-0.195496	
4224.651313	-0.189542	
4224.652941	-0.182646	
4224.654472	-0.163004	
4224.656146	-0.158762	
4224.657631	-0.166041	
4224.659369	-0.158955	
4224.660840	-0.155507	
4224.662567	-0.156949	
4224.664045	-0.155197	
4224.665764	-0.146032	
4224.667248	-0.137122	
4224.668946	-0.131224	
4224.670426	-0.117842	
4224.672125	-0.113310	
4224.673619	-0.121826	
4224.675293	-0.124727	
4224.676824	-0.119655	
4224.678557	-0.117677	
4224.680083	-0.119977	
4224.681788	-0.107735	
4224.683326	-0.101205	
4224.685013	-0.100520	
4224.686567	-0.095263	
4224.688263	-0.083098	
4224.689837	-0.093845	
4224.691490	-0.096714	
4224.693078	-0.090873	
4224.694752	-0.096685	
4224.696355	-0.103239	
4224.698013	-0.092234	
4224.699616	-0.077088	
4224.701222	-0.074320	
4224.702887	-0.076979	
4224.704477	-0.066815	
4224.706154	-0.068056	
4224.707749	-0.077225	
4224.709414	-0.073273	
4224.711001	-0.072834	
4224.712689	-0.078328	
4224.714244	-0.075086	
4224.715945	-0.064729	
4224.717484	-0.062320	
4224.719199	-0.062747	
4224.720748	-0.045131	
4224.722452	-0.046380	
4224.723963	-0.052189	
4224.725728	-0.060290	
4224.727219	-0.055053	
4224.729004	-0.060241	
4224.730481	-0.061442	
4224.732272	-0.050452	
4224.733756	-0.046460	
4224.735538	-0.042267	
4224.737019	-0.036615	
4224.738791	-0.029666	
4224.740283	-0.037554	
4224.742064	-0.040390	
4224.743555	-0.035362	
4224.745298	-0.039423	
4224.746814	-0.044261	
4224.748534	-0.037086	
4224.750057	-0.029143	
4224.751766	-0.027237	
4224.753312	-0.022774	
4224.755036	-0.011535	
4224.756595	-0.015805	
4224.758283	-0.026150	
4224.759835	-0.025787	
4224.761507	-0.027209	
4224.763092	-0.031338	
4224.764733	-0.022593	
4224.766345	-0.012884	
4224.767976	-0.011325	
4224.769596	-0.007498	
4224.771215	0.003535	
4224.772859	0.001356	
4224.774453	-0.007301	
4224.776087	-0.008385	
4224.777681	-0.006939	
4224.779369	-0.011313	
4224.780924	-0.016067	
4224.782634	0.000405	
4224.784190	0.000204	
4224.785900	0.005924	
4224.787438	0.009215	
4224.789143	0.007358	
4224.790693	-0.000090	
4224.792426	-0.008224	
4224.793930	-0.006906	
4224.795691	-0.010645	
4224.797176	-0.012582	
4224.798947	-0.000989	
4224.800434	-0.001798	
4224.802193	0.003680	
4224.803712	0.006182	
4224.805200	0.015656	
4224.806778	0.009255	
4224.808321	-0.000533	
4224.809910	0.000941	
4224.811406	-0.005887	
4224.813053	-0.009452	
4224.814547	-0.005230	
4224.816175	0.002887	
4224.817661	0.002017	
4224.819300	0.001666	
4224.820786	0.006589	
4224.822432	0.012764	
4224.823931	-0.000666	
4224.825538	-0.001601	
4224.827040	-0.003978	
4224.828642	-0.009694	
4224.830160	-0.010967	
4224.831731	-0.002983	
4224.833288	0.000417	
4224.834890	0.001167	
4224.836478	0.007370	
4224.838050	0.010242	
4224.839696	0.007725	
4224.841243	0.000405	
4224.842881	0.001751	
4224.844370	-0.004276	
4224.846085	-0.009690	
4224.847562	-0.009440	
4224.849280	0.000389	
4224.850753	0.002814	
4224.852460	0.003386	
4224.853942	0.011318	
4224.855662	0.020071	
4224.857151	0.007515	
4224.858945	0.006351	
4224.860419	0.008478	
4224.862201	-0.001661	
4224.863676	-0.005528	
4224.865425	0.007189	
4224.866919	0.007640	
4224.868648	0.009066	
4224.870159	0.017743	
4224.871880	0.028926	
4224.873418	0.010814	
4224.875159	0.013058	
4224.876691	0.016132	
4224.878388	0.012337	
4224.879928	0.008849	
4224.881618	0.015878	
4224.883187	0.030166	
4224.884865	0.032201	
4224.886450	0.031266	
4224.888124	0.040640	
4224.889713	0.035593	
4224.891354	0.030215	
4224.892942	0.026976	
4224.894577	0.028833	
4224.896211	0.034968	
4224.897811	0.028781	
4224.899497	0.037284	
4224.901089	0.049112	
4224.902747	0.045031	
4224.904320	0.059585	
4224.905993	0.064375	
4224.907569	0.051891	
4224.909277	0.048000	
4224.910819	0.054687	
4224.912540	0.048544	
4224.914107	0.050610	
4224.915831	0.069652	
4224.917378	0.071727	
4224.919096	0.067722	
4224.920609	0.083195	
4224.922374	0.078216	
4224.923852	0.077793	
4224.925646	0.071569	
4224.927133	0.071896	
4224.928930	0.078530	
4224.930409	0.083356	
4224.932162	0.094789	
4224.933646	0.100102	
4224.935444	0.099256	
4224.936919	0.105331	
4224.938693	0.115309	
4224.940191	0.113041	
4224.941925	0.112952	
4224.943441	0.113907	
4224.945147	0.107095	
4224.946680	0.109907	
4224.948400	0.119623	
4224.949953	0.127801	
4224.951651	0.133944	
4224.953203	0.136832	
4224.954862	0.145147	
4224.956428	0.158335	
4224.958087	0.151282	
4224.959680	0.157123	
4224.961309	0.158460	
4224.962924	0.156929	
4224.964535	0.163318	
4224.966163	0.168672	
4224.967782	0.176523	
4224.969426	0.192592	
4224.971030	0.204544	
4224.972714	0.216807	
4224.974290	0.205503	
4224.975988	0.210853	
4224.977536	0.209439	
4224.979241	0.209568	
4224.980798	0.217113	
4224.982506	0.241883	
4224.984006	0.254254	
4224.985564	0.263608	
4224.987067	0.271507	
4224.988675	0.284575	
4224.990186	0.279564	
4224.991749	0.285103	
4224.993304	0.293486	
4224.994803	0.304958	
4224.996469	0.295854	
4224.997964	0.314284	
4224.999595	0.340182	
4225.001121	0.345052	
4225.002764	0.359026	
4225.004257	0.376602	
4225.005918	0.394613	
4225.007396	0.393183	
4225.009048	0.401275	
4225.010533	0.403241	
4225.012232	0.412837	
4225.013713	0.412667	
4225.015405	0.452254	
4225.016890	0.472093	
4225.018566	0.488803	
4225.020095	0.502958	
4225.021736	0.520816	
4225.023295	0.537626	
4225.024915	0.547185	
4225.026503	0.571846	
4225.028100	0.579654	
4225.029699	0.594091	
4225.031250	0.625512	
4225.032874	0.652175	
4225.034469	0.669360	
4225.036110	0.679379	
4225.037714	0.719130	
4225.039398	0.742398	
4225.040969	0.760457	
4225.042670	0.790544	
4225.044254	0.807930	
4225.045939	0.830565	
4225.047508	0.852878	
4225.049197	0.900920	
4225.050763	0.922238	
4225.052485	0.954098	
4225.054021	0.999074	
4225.055744	1.031659	
4225.057252	1.055692	
4225.059007	1.083492	
4225.060490	1.116826	
4225.062267	1.143663	
4225.063761	1.186157	
4225.065537	1.227589	
4225.067014	1.257716	
4225.068793	1.305694	
4225.070277	1.344539	
4225.072043	1.384024	
4225.073543	1.422684	
4225.075291	1.464377	
4225.076814	1.502465	
4225.078577	1.538833	
4225.080093	1.573339	
4225.081806	1.609131	
4225.083347	1.618388	
4225.085056	1.618489	
4225.086605	1.618420	
4225.088292	1.618461	
4225.089844	1.618456	
4225.091522	1.618428	
4225.093121	1.618461	
4225.094791	1.618493	
4225.096368	1.618513	
4225.098023	1.618477	
4225.099614	1.618481	
4225.101239	1.618533	
4225.102860	1.618424	
4225.104465	1.618501	
4225.106129	1.618424	
4225.107731	1.618497	
4225.109388	1.618529	
4225.110990	1.618529	
4225.112668	1.618452	
4225.114243	1.618537	
4225.115941	1.618473	
4225.117498	1.618630	
4225.119196	1.618380	
4225.120746	1.618561	
4225.122464	1.618452	
4225.123997	1.618509	
4225.125705	1.618481	
4225.127201	1.618493	
4225.128972	1.618473	
4225.130451	1.618489	
4225.132219	1.618569	
4225.133699	1.618521	
4225.135470	1.618509	
4225.136954	1.618493	
4225.138694	1.618497	
4225.140203	1.618537	
4225.141944	1.618505	
4225.143457	1.618453	
4225.145206	1.618497	
4225.146733	1.618456	
4225.148449	1.618501	
4225.149990	1.618497	
4225.151694	1.618577	
4225.153248	1.618457	
4225.154949	1.618602	
4225.156524	1.618412	
4225.158219	1.618513	
4225.159825	1.618440	
4225.161330	1.618529	
4225.162893	1.618549	
4225.164420	1.618456	
4225.166040	1.618505	
4225.167533	1.618521	
4225.169199	1.618553	
4225.170672	1.618477	
4225.172300	1.618686	
4225.173784	1.618452	
4225.175409	1.618553	
4225.176895	1.618493	
4225.178469	1.618473	
4225.180001	1.618549	
4225.181541	1.618545	
4225.183159	1.618610	
4225.184652	1.618545	
4225.186295	1.618501	
4225.187814	1.618581	
4225.189473	1.618521	
4225.190948	1.618505	
4225.192683	1.618469	
4225.194160	1.618509	
4225.195880	1.618565	
4225.197353	1.618400	
4225.199069	1.618529	
4225.200549	1.618590	
4225.202251	1.618557	
4225.203753	1.618493	
4225.205469	1.618630	
4225.206963	1.618497	
4225.208645	1.618517	
4225.210145	1.618469	
4225.211803	1.618601	
4225.213332	1.618557	
4225.215040	1.618590	
4225.216586	1.618501	
4225.218285	1.618573	
4225.219831	1.618590	
4225.221511	1.618541	
4225.223104	1.618473	
4225.224776	1.618658	
4225.226370	1.618485	
4225.228028	1.618561	
4225.229628	1.618424	
4225.231270	1.618654	
4225.232882	1.618521	
4225.234498	1.618610	
4225.236166	1.618517	
4225.237771	1.618565	
4225.239427	1.618408	
4225.241025	1.618634	
4225.242674	1.618529	
4225.244252	1.618537	
4225.245947	1.618613	
4225.247503	1.618582	
4225.249207	1.618461	
4225.250757	1.618529	
4225.252466	1.618601	
4225.254010	1.618638	
4225.255696	1.618557	
4225.257200	1.618521	
4225.258992	1.618622	
4225.260468	1.618557	
4225.262258	1.618505	
4225.263738	1.618501	
4225.265514	1.618513	
4225.266997	1.618573	
4225.268784	1.618634	
4225.270277	1.618404	
4225.272065	1.618525	
4225.273550	1.618521	
4225.275319	1.618610	
4225.276822	1.618569	
4225.278557	1.618549	
4225.280077	1.618493	
4225.281784	1.618553	
4225.283320	1.618424	
4225.285035	1.618569	
4225.286595	1.618501	
4225.288284	1.618541	
4225.289854	1.618481	
4225.291530	1.618577	
4225.293107	1.618481	
4225.294772	1.618646	
4225.296367	1.618432	
4225.298011	1.618513	
4225.299617	1.618432	
4225.301257	1.618577	
4225.302863	1.618521	
4225.304486	1.618553	
4225.306138	1.618384	
4225.307741	1.618565	
4225.309411	1.618485	
4225.310983	1.618481	
4225.312666	1.618380	
4225.314241	1.618525	
4225.315930	1.618279	
4225.317503	1.618364	
4225.319212	1.546120	
4225.320769	1.371416	
4225.322462	1.217687	
4225.324005	1.078734	
4225.325732	0.923064	
4225.327230	0.779611	
4225.328987	0.604013	
4225.330465	0.457736	
4225.332250	0.316157	
4225.333737	0.178940	
4225.335540	0.023725	
4225.337018	-0.110929	
4225.338802	-0.248311	
4225.340296	-0.385262	
4225.341789	-0.515534	
4225.343361	-0.657629	
4225.344911	-0.810153	
4225.346523	-0.956156	
4225.348010	-1.082258	
4225.349651	-1.195873	
4225.351155	-1.307594	
4225.352811	-1.436178	
4225.354296	-1.548190	
4225.355937	-1.630162	
4225.357410	-1.639721	
4225.359041	-1.639637	
4225.360517	-1.639737	
4225.362157	-1.639685	
4225.363654	-1.639609	
4225.365251	-1.639641	
4225.366783	-1.639597	
4225.368430	-1.639629	
4225.369975	-1.639653	
4225.371603	-1.639585	
4225.373182	-1.639733	
4225.374779	-1.639605	
4225.376368	-1.639754	
4225.377940	-1.639665	
4225.379558	-1.639733	
4225.381076	-1.639605	
4225.382762	-1.639572	
4225.384249	-1.639637	
4225.385973	-1.639693	
4225.387452	-1.639669	
4225.389180	-1.639786	
4225.390650	-1.639701	
4225.392364	-1.639665	
4225.393860	-1.639693	
4225.395607	-1.639657	
4225.397085	-1.639617	
4225.398848	-1.639709	
4225.400335	-1.639677	
4225.402134	-1.639717	
4225.403611	-1.639722	
4225.405383	-1.639713	
4225.406872	-1.639661	
4225.408621	-1.639661	
4225.410127	-1.639798	
4225.411861	-1.639629	
4225.413392	-1.639794	
4225.415112	-1.639733	
4225.416653	-1.639689	
4225.418352	-1.639681	
4225.419903	-1.639701	
4225.421616	-1.639673	
4225.423176	-1.639758	
4225.424840	-1.639621	
4225.426409	-1.639734	
4225.428072	-1.639645	
4225.429685	-1.639766	
4225.431340	-1.639669	
4225.432944	-1.639854	
4225.434595	-1.639665	
4225.436203	-1.639794	
4225.437823	-1.639697	
4225.439472	-1.639794	
4225.441051	-1.639653	
4225.442706	-1.639814	
4225.444304	-1.639613	
4225.445976	-1.639842	
4225.447569	-1.639701	
4225.449248	-1.639830	
4225.450840	-1.639633	
4225.452544	-1.639790	
4225.454086	-1.639673	
4225.455805	-1.639798	
4225.457364	-1.639826	
4225.459062	-1.639814	
4225.460569	-1.639669	
4225.462329	-1.639826	
4225.463818	-1.639762	
4225.465617	-1.639810	
4225.467096	-1.639709	
4225.468867	-1.639770	
4225.470349	-1.639734	
4225.472128	-1.639774	
4225.473611	-1.639782	
4225.475348	-1.639754	
4225.476853	-1.639782	
4225.478631	-1.639774	
4225.480134	-1.639758	
4225.481864	-1.639758	
4225.483387	-1.639746	
4225.485115	-1.639689	
4225.486649	-1.639806	
4225.488372	-1.639657	
4225.489915	-1.639778	
4225.491607	-1.639629	
4225.493170	-1.639883	
4225.494860	-1.639717	
4225.496426	-1.639826	
4225.498103	-1.639625	
4225.499684	-1.639746	
4225.501349	-1.639576	
4225.502958	-1.639738	
4225.504583	-1.639641	
4225.506207	-1.639754	
4225.507842	-1.639629	
4225.509468	-1.639677	
4225.511068	-1.639593	
4225.512703	-1.639782	
4225.514303	-1.639605	
4225.515984	-1.639782	
4225.517553	-1.639641	
4225.519250	-1.639742	
4225.520735	-1.639729	
4225.522296	-1.639790	
4225.523791	-1.639709	
4225.525425	-1.639681	
4225.526927	-1.639725	
4225.528522	-1.639713	
4225.530096	-1.639685	
4225.531655	-1.639681	
4225.533234	-1.639621	
4225.534721	-1.639661	
4225.536381	-1.639754	
4225.537861	-1.639705	
4225.539502	-1.639709	
4225.541025	-1.639738	
4225.542659	-1.639721	
4225.544135	-1.639701	
4225.545770	-1.639681	
4225.547254	-1.639661	
4225.548963	-1.639657	
4225.550459	-1.639645	
4225.552176	-1.639641	
4225.553661	-1.639637	
4225.555361	-1.639597	
4225.556849	-1.639758	
4225.558523	-1.639617	
4225.560035	-1.639665	
4225.561667	-1.639572	
4225.563223	-1.639766	
4225.564830	-1.639613	
4225.566415	-1.639709	
4225.567981	-1.639601	
4225.569592	-1.639725	
4225.571128	-1.639625	
4225.572799	-1.639677	
4225.574409	-1.639536	
4225.576049	-1.639665	
4225.577647	-1.639504	
4225.579333	-1.639661	
4225.580912	-1.639548	
4225.582598	-1.639697	
4225.584158	-1.639613	
4225.585879	-1.639629	
4225.587451	-1.639641	
4225.589138	-1.639617	
4225.590696	-1.639552	
4225.592420	-1.639576	
4225.593957	-1.639661	
4225.595683	-1.639669	
4225.597171	-1.639617	
4225.598956	-1.639601	
4225.600439	-1.631149	
4225.602215	-1.563465	
4225.603701	-1.508451	
4225.605484	-1.461231	
4225.606963	-1.432082	
4225.608749	-1.392955	
4225.610229	-1.358956	
4225.612007	-1.324505	
4225.613506	-1.292384	
4225.615245	-1.247468	
4225.616755	-1.211020	
4225.618505	-1.177158	
4225.620028	-1.131335	
4225.621753	-1.094625	
4225.623294	-1.074689	
4225.624999	-1.047546	
4225.626552	-1.020629	
4225.628246	-0.992576	
4225.629806	-0.965800	
4225.631499	-0.933303	
4225.633076	-0.893624	
4225.634750	-0.869881	
4225.636331	-0.843935	
4225.637979	-0.807946	
4225.639565	-0.792300	
4225.641205	-0.775659	
4225.642827	-0.751976	
4225.644435	-0.733212	
4225.646111	-0.714867	
4225.647691	-0.688240	
4225.649360	-0.662886	
4225.650963	-0.641616	
4225.652636	-0.623703	
4225.654211	-0.605329	
4225.655906	-0.585744	
4225.657463	-0.584950	
4225.659178	-0.561654	
4225.660727	-0.551289	
4225.662442	-0.542230	
4225.663993	-0.524840	
4225.665692	-0.500025	
4225.667226	-0.486707	
4225.668989	-0.474083	
4225.670469	-0.454179	
4225.672239	-0.444180	
4225.673717	-0.437929	
4225.675488	-0.430512	
4225.676973	-0.423906	
4225.678739	-0.418480	
4225.680217	-0.407672	
4225.681975	-0.387454	
4225.683482	-0.381596	
4225.685254	-0.374370	
4225.686764	-0.358534	
4225.688506	-0.340028	
4225.690021	-0.343690	
4225.691741	-0.337341	
4225.693271	-0.333265	
4225.694988	-0.327722	
4225.696557	-0.325728	
4225.698227	-0.313300	
4225.699816	-0.303310	
4225.701310	-0.296510	
4225.702960	-0.287410	
4225.704464	-0.270640	
4225.706120	-0.267361	
4225.707626	-0.270032	
4225.709275	-0.266237	
4225.710753	-0.262419	
4225.712400	-0.263965	
4225.713891	-0.260864	
4225.715528	-0.243272	
4225.717010	-0.232637	
4225.718638	-0.226647	
4225.720140	-0.217612	
4225.721717	-0.207331	
4225.723263	-0.209241	
4225.724776	-0.210220	
4225.726408	-0.206876	
4225.727976	-0.211239	
4225.729593	-0.209817	
4225.731130	-0.198409	
4225.732804	-0.180011	
4225.734296	-0.175951	
4225.736000	-0.168402	
4225.737478	-0.160482	
4225.739188	-0.167713	
4225.740663	-0.164313	
4225.742373	-0.160365	
4225.743868	-0.152514	
4225.745567	-0.153936	
4225.747058	-0.150036	
4225.748766	-0.138673	
4225.750245	-0.133766	
4225.751947	-0.132046	
4225.753444	-0.120034	
4225.755187	-0.108013	
4225.756707	-0.113463	
4225.758428	-0.114410	
4225.759962	-0.109367	
4225.761694	-0.106325	
4225.763233	-0.112601	
4225.764942	-0.095493	
4225.766481	-0.090474	
4225.768153	-0.092427	
4225.769741	-0.077414	
4225.771433	-0.065470	
4225.773019	-0.071670	
4225.774680	-0.079082	
4225.776297	-0.071943	
4225.777945	-0.071005	
4225.779545	-0.073253	
4225.781170	-0.070916	
4225.782788	-0.059609	
4225.784388	-0.058328	
4225.786074	-0.052515	
4225.787659	-0.038996	
4225.789344	-0.038299	
4225.790950	-0.052140	
4225.792615	-0.049482	
4225.794216	-0.044732	
4225.795913	-0.053300	
4225.797478	-0.046114	
4225.799178	-0.040635	
4225.800722	-0.033735	
4225.802450	-0.029670	
4225.804008	-0.023753	
4225.805714	-0.013771	
4225.807250	-0.031201	
4225.808961	-0.031423	
4225.810463	-0.028285	
4225.812257	-0.037803	
4225.813737	-0.033038	
4225.815531	-0.022049	
4225.817017	-0.019535	
4225.818796	-0.019249	
4225.820274	-0.011994	
4225.822052	-0.005976	
4225.823539	-0.017585	
4225.825304	-0.019023	
4225.826799	-0.018621	
4225.828541	-0.026041	
4225.830052	-0.030585	
4225.831784	-0.020711	
4225.833306	-0.014907	
4225.835025	-0.012244	
4225.836567	-0.004199	
4225.838270	-0.000300	
4225.839817	-0.008659	
4225.841485	-0.021573	
4225.843052	-0.012933	
4225.844729	-0.015736	
4225.846302	-0.024723	
4225.847953	-0.012751	
4225.849556	-0.005621	
4225.851184	-0.011462	
4225.852803	-0.005517	
4225.854426	0.003519	
4225.856077	-0.001424	
4225.857678	-0.012663	
4225.859325	-0.010314	
4225.860923	-0.008747	
4225.862589	-0.012820	
4225.864160	-0.009541	
4225.865859	0.000453	
4225.867397	0.002174	
4225.869093	0.005489	
4225.870645	0.012965	
4225.872364	0.019197	
4225.873881	0.010633	
4225.875623	0.006705	
4225.877096	0.012728	
4225.878866	0.010113	
4225.880348	0.011378	
4225.882142	0.019278	
4225.883621	0.028696	
4225.885116	0.019427	
4225.886684	0.037909	
4225.888226	0.042086	
4225.889830	0.035959	
4225.891318	0.030658	
4225.892998	0.043951	
4225.894495	0.032354	
4225.896121	0.034021	
4225.897642	0.036467	
4225.899280	0.051239	
4225.900757	0.052350	
4225.902396	0.048487	
4225.903875	0.070643	
4225.905512	0.078865	
4225.907019	0.067453	
4225.908644	0.064895	
4225.910160	0.070244	
4225.911852	0.062216	
4225.913360	0.066856	
4225.915007	0.074921	
4225.916548	0.087127	
4225.918166	0.092666	
4225.919728	0.097101	
4225.921316	0.106987	
4225.922923	0.101182	
4225.924469	0.098479	
4225.926103	0.104154	
4225.927609	0.108118	
4225.929322	0.098197	
4225.930799	0.103575	
4225.932511	0.111466	
4225.933987	0.120538	
4225.935700	0.123712	
4225.937235	0.129106	
4225.938957	0.134778	
4225.940451	0.128655	
4225.942212	0.129956	
4225.943694	0.134883	
4225.945484	0.129291	
4225.946963	0.132361	
4225.948749	0.150094	
4225.950236	0.150553	
4225.951994	0.156402	
4225.953491	0.163190	
4225.955257	0.178852	
4225.956751	0.168632	
4225.958502	0.169381	
4225.960014	0.166589	
4225.961733	0.179706	
4225.963265	0.176350	
4225.964964	0.180161	
4225.966519	0.191843	
4225.968198	0.196451	
4225.969759	0.207308	
4225.971436	0.218680	
4225.973014	0.213350	
4225.974682	0.213266	
4225.976266	0.214466	
4225.977925	0.218245	
4225.979533	0.220231	
4225.981148	0.225177	
4225.982782	0.236557	
4225.984410	0.241548	
4225.986072	0.242382	
4225.987663	0.265916	
4225.989308	0.267048	
4225.990885	0.258818	
4225.992572	0.264647	
4225.994140	0.270814	
4225.995860	0.278678	
4225.997423	0.286416	
4225.999130	0.301393	
4226.000664	0.298384	
4226.002383	0.324036	
4226.003944	0.336230	
4226.005679	0.349765	
4226.007201	0.344553	
4226.008945	0.349004	
4226.010448	0.363627	
4226.012208	0.362511	
4226.013696	0.373045	
4226.015473	0.393049	
4226.016968	0.401900	
4226.018745	0.419995	
4226.020225	0.443114	
4226.022000	0.453837	
4226.023488	0.457426	
4226.025246	0.469705	
4226.026752	0.480512	
4226.028474	0.496227	
