time (s)	magX	magY	magZ
5440.057678	-187.730560	78.294563	105.072472
5440.061063	-190.477478	79.697250	109.280540
5440.064347	-194.393311	81.567505	114.306839
5440.067680	-198.426056	82.911743	120.268257
5440.071012	-201.932800	84.665108	126.697250
5440.074379	-204.913483	86.243126	131.723557
5440.077682	-208.420227	88.113388	138.386322
5440.081010	-212.102264	89.165398	144.172424
5440.084348	-215.667450	91.503212	150.776749
5440.087706	-219.232605	92.847450	157.497955
5440.091011	-222.330200	94.483925	163.342484
5440.094342	-225.895386	96.295731	170.881943
5440.097679	-229.460541	98.049095	178.713623
5440.101013	-232.441254	99.159554	185.551727
5440.104340	-236.181763	101.263588	194.435410
5440.107672	-239.863831	102.958496	202.208649
5440.111006	-242.669220	104.361191	209.923447
5440.114346	-245.533020	106.231445	219.566925
5440.117672	-248.747528	107.926361	228.801285
5440.121008	-251.845123	109.562828	237.743408
5440.124339	-255.293396	111.023956	246.744003
5440.127728	-257.631226	112.485092	258.199310
5440.131017	-260.436584	113.420219	268.777893
5440.134345	-262.949738	115.348915	278.830505
5440.137672	-265.755127	116.926941	290.987152
5440.141004	-267.216248	117.862061	303.202209
5440.145631	-271.132080	120.199875	328.450623
5440.148582	-272.359436	121.193451	342.419067
5440.151883	-273.820587	121.427231	356.621277
5440.155262	-274.112793	122.537689	370.297485
5440.158592	-274.989502	123.414375	385.084167
5440.161991	-274.054382	123.706612	399.812408
5440.165183	-274.288147	123.940392	414.715942
5440.168514	-273.469910	123.706612	430.087067
5440.171847	-271.541229	123.355927	444.873749
5440.174769	-269.670959	123.122147	461.822937
5440.178095	-267.157806	122.479256	477.953857
5440.181447	-263.475769	121.076569	495.136780
5440.184779	-259.969025	119.907661	512.436584
5440.188112	-255.644073	118.738754	527.632385
5440.191479	-251.143768	116.985382	544.114014
5440.194763	-245.123932	115.348915	560.069580
5440.197666	-239.045593	112.835770	575.440735
5440.201003	-232.499695	110.205727	591.396301
5440.204363	-224.668030	107.634132	606.708984
5440.207666	-216.836365	105.004089	621.028137
5440.211003	-208.420227	101.555809	635.522522
5440.214336	-198.952087	97.464638	651.068970
5440.217669	-189.250122	94.542374	664.394531
5440.220998	-179.548218	90.042076	676.726501
5440.224327	-168.034485	86.184685	689.818237
5440.227661	-155.702515	81.976624	702.267151
5440.230993	-144.013428	77.184097	712.845703
5440.234328	-131.564575	71.514900	723.541199
5440.237666	-118.998833	66.254822	732.366455
5440.240997	-105.088829	61.345413	742.477539
5440.244328	-90.769722	55.851547	749.432556
5440.247683	-76.859734	49.773232	756.504395
5440.251000	-62.365280	43.987144	762.641174
5440.254324	-47.753944	38.317947	769.420837
5440.257669	-32.908821	32.005844	771.700195
5440.261004	-17.596142	26.044418	775.849854
5440.264328	-2.341904	19.849211	778.012268
5440.267657	13.204559	13.770894	779.473389
5440.270989	29.160141	7.341906	779.882568
5440.274328	44.472824	0.854471	778.012268
5440.277658	60.662186	-5.632963	776.551147
5440.280990	75.682640	-12.120398	773.219788
5440.284329	91.345993	-18.490940	768.719482
5440.287652	106.366455	-24.803038	763.810059
5440.291009	121.094681	-30.413794	757.264221
5440.294328	135.647568	-36.316772	749.900085
5440.297652	150.258911	-41.109291	741.250183
5440.300989	163.292236	-46.778496	731.431335
5440.304319	176.793121	-52.389244	720.911194
5440.307653	189.008179	-57.006432	710.332581
5440.310994	200.405029	-61.915840	697.883728
5440.314345	211.977203	-66.299240	684.733521
5440.317652	222.263611	-70.857979	670.940430
5440.322296	241.199860	-79.157219	643.295776
5440.325631	249.849792	-82.137932	628.216858
5440.328550	257.623016	-85.761543	614.248413
5440.331866	263.993561	-88.625366	598.175964
5440.335279	269.896545	-91.313850	582.571045
5440.338620	275.098175	-93.534775	566.498596
5440.341914	279.773804	-96.106369	550.250732
5440.345170	284.157227	-97.976624	534.996521
5440.348510	287.605499	-99.613091	519.859192
5440.351409	289.943298	-100.489777	504.254242
5440.354743	292.456451	-102.184685	489.058441
5440.358084	293.800690	-102.827591	473.336639
5440.361404	295.378723	-104.171829	458.082428
5440.364788	295.787842	-104.580948	443.178833
5440.368112	296.255402	-105.165405	428.158356
5440.371007	295.963196	-105.516068	415.300415
5440.374340	296.080048	-105.516068	400.747528
5440.377679	294.560486	-105.340736	388.298676
5440.380979	293.450012	-105.516068	374.037994
5440.384315	292.281128	-105.457634	360.537109
5440.387650	290.469299	-105.516068	348.555817
5440.391002	289.300415	-104.814728	335.522491
5440.394318	286.319702	-103.821152	324.008759
5440.397653	283.806519	-103.879601	311.559906
5440.400980	281.059601	-102.944473	300.805969
5440.404313	278.078918	-102.184685	289.292236
5440.407644	275.507294	-101.541786	278.012268
5440.410977	272.059021	-100.723557	267.433655
5440.414312	269.078339	-99.554649	257.030396
5440.417643	265.571594	-98.911743	247.211563
5440.420998	262.006439	-97.684402	236.574524
5440.424305	258.791962	-96.573929	228.099930
5440.427647	255.051422	-95.171242	218.398010
5440.430977	251.194061	-93.885445	209.397415
5440.434307	246.810638	-92.833427	201.857971
5440.437641	242.953247	-91.722969	192.156052
5440.440990	238.628296	-90.846291	184.733490
5440.444313	235.121552	-89.034485	176.784912
5440.447637	230.855072	-88.157806	169.479248
5440.450974	227.114563	-86.404442	161.589127
5440.454305	223.023376	-85.293976	155.218582
5440.457639	218.815308	-83.657509	148.672714
5440.460976	214.607239	-82.547050	142.419052
5440.464331	211.158966	-81.144363	136.223846
5440.467642	207.243134	-79.741676	130.905319
5440.470967	203.853302	-78.631210	125.937462
5440.474308	199.645233	-76.644073	119.800697
5440.477646	195.554077	-76.234947	114.891289
5440.480968	192.105774	-74.832260	110.624779
5440.484309	189.241974	-73.721802	106.007599
5440.487638	185.793671	-72.669785	102.091759
5440.490969	182.520752	-71.793106	97.591461
5440.494323	178.897156	-70.273529	93.324959
5440.499007	172.468140	-68.578613	86.895966
5440.501911	169.779663	-67.468147	83.623024
5440.505149	166.331390	-66.123901	80.466980
5440.508495	163.642883	-65.305672	77.720047
5440.511857	160.954407	-64.195213	74.797775
5440.515177	157.856812	-63.260086	72.109291
5440.518560	155.752777	-61.857399	69.362358
5440.521891	153.239624	-61.448280	67.258324
5440.524773	150.901825	-60.337822	64.745178
5440.528062	148.797791	-59.636475	62.056690
5440.531389	146.109283	-58.350670	60.011105
5440.534712	143.654587	-57.590881	57.439510
5440.538081	140.849213	-57.240211	56.270599
5440.541393	138.920502	-55.603745	53.932785
5440.544722	137.225601	-54.902397	52.004089
5440.548076	133.952667	-54.434837	49.490940
5440.550966	131.907074	-53.616600	48.322033
5440.554295	129.569260	-52.681473	45.867329
5440.557634	127.523674	-52.155464	44.639977
5440.561014	126.237869	-51.454117	42.886612
5440.564294	123.315605	-50.811226	41.308590
5440.567629	121.912918	-49.700760	40.665691
5440.570960	120.042664	-48.590294	38.386322
5440.574296	118.639977	-48.005844	37.860313
5440.577626	116.886620	-47.362946	35.639393
5440.580995	114.782585	-47.304497	33.886028
5440.584296	112.912331	-46.310928	32.775570
5440.587625	111.158974	-45.726479	30.905319
5440.590954	109.230270	-44.674461	30.320866
5440.594308	108.470490	-44.674461	29.327295
5440.597629	106.366455	-43.797775	27.573935
5440.600957	105.548218	-43.096436	25.995909
5440.604296	104.145531	-42.804207	26.346581
5440.607625	102.275276	-42.161308	23.950323
5440.610960	101.340149	-41.576859	24.125658
5440.614298	99.995911	-41.459961	22.722971
5440.617622	98.359444	-41.050850	22.080070
5440.620952	97.424316	-40.466393	21.612507
5440.624325	96.080070	-39.881943	20.677382
5440.627627	95.378723	-39.823494	20.735828
5440.630954	93.683807	-39.531265	19.566921
5440.634287	92.807129	-39.180595	19.099358
5440.637633	92.105789	-38.829926	18.690241
5440.640953	91.112213	-38.128578	18.456459
5440.644290	90.410873	-37.894798	17.287550
5440.647625	89.417305	-37.661018	16.819988
5440.650960	88.891289	-37.076561	16.878433
5440.654285	88.423729	-37.018120	15.943308
5440.657622	87.254822	-36.901230	15.592636
5440.660951	86.670372	-36.316772	15.358854
5440.664283	86.378143	-36.199883	14.657510
5440.667641	85.618355	-35.907661	15.008183
5440.670953	84.975449	-36.375221	14.189947
5440.675643	84.040329	-35.206314	13.956165
5440.678530	83.864990	-35.030975	13.605494
5440.681821	82.579193	-35.147865	13.313267
5440.685131	82.053185	-34.563416	13.547049
5440.688461	81.527176	-34.563416	13.313267
5440.691828	80.650497	-34.271187	13.371713
5440.695155	79.949158	-33.745178	12.495032
5440.698545	79.306259	-33.394508	11.501461
5440.701404	79.072479	-33.452950	11.735242
5440.704759	78.371132	-33.102280	10.858562
5440.708039	78.195793	-32.284042	11.092343
5440.711395	77.903564	-32.926941	10.741672
5440.714714	77.552902	-32.400932	10.215663
5440.718036	76.676208	-32.225601	10.975452
5440.721367	76.325546	-32.634720	10.332554
5440.724708	75.857979	-32.634720	10.274109
5440.727610	75.857979	-32.108711	9.455873
5440.730949	75.448860	-31.699591	9.572764
5440.734278	75.390411	-32.050262	9.689655
5440.737614	74.981293	-31.699591	8.988311
5440.740951	74.805962	-31.582701	8.754530
5440.744300	74.689072	-31.582701	8.871420
5440.747655	74.163063	-31.348917	8.053185
5440.750943	73.870834	-31.758036	7.819404
5440.754290	74.163063	-31.407366	7.819404
5440.757609	73.753952	-31.290472	8.053185
5440.760939	73.520164	-30.998247	7.644068
5440.764273	73.637054	-31.641146	7.644068
5440.767617	73.987732	-31.290472	7.644068
5440.770941	73.403275	-31.582701	8.053185
5440.774273	73.753952	-31.056692	9.105202
5440.777611	73.929276	-31.115137	8.988311
5440.780937	74.104614	-31.290472	9.046756
5440.784276	73.987732	-31.290472	9.338983
5440.787607	74.163063	-31.641146	9.105202
5440.790968	74.163063	-31.699591	8.754530
5440.794270	74.630623	-31.465811	9.631209
5440.797610	75.331970	-31.582701	10.215663
5440.800936	75.390411	-32.050262	10.098772
5440.804273	75.331970	-32.167152	10.391000
5440.807603	75.390411	-31.991816	10.274109
5440.810941	76.442429	-32.108711	9.572764
5440.814274	75.974869	-32.284042	10.507890
5440.817604	76.267097	-32.576271	10.040327
5440.820939	76.676208	-32.342491	10.040327
5440.824267	76.559326	-32.693161	10.332554
5440.827605	77.202225	-32.576271	11.326125
5440.830941	77.611343	-32.926941	11.267679
5440.834301	78.020462	-33.511398	11.676797
5440.837596	78.604912	-33.160721	11.559906
5440.840940	79.130920	-33.394508	12.261250
5440.844271	79.598480	-33.803619	11.443015
5440.847604	80.241379	-33.686729	12.728813
5440.852288	80.884277	-33.920517	12.728813
5440.855196	80.708946	-34.037407	12.728813
5440.858505	82.286964	-33.862068	12.904150
5440.861783	82.228523	-34.154297	12.144360
5440.865117	82.696091	-34.621857	13.313267
5440.868442	83.514320	-35.030975	13.897720
5440.871825	83.514320	-34.914085	14.014611
5440.875138	84.449448	-35.206314	13.956165
5440.878078	84.858559	-35.849213	14.423728
5440.881387	85.852135	-35.966103	15.183518
5440.884729	86.611923	-36.433662	14.715956
5440.888027	87.313271	-36.024551	15.767972
5440.891352	87.722382	-36.842781	15.709526
5440.894688	88.540619	-36.901230	16.469316
5440.898025	89.417305	-37.777908	16.878433
5440.901351	90.819992	-38.070137	18.398014
5440.904257	91.638222	-38.596146	17.930450
5440.907600	91.813560	-38.888367	19.333139
5440.910930	93.099358	-39.297485	19.274694
5440.914263	94.911163	-39.940384	20.502047
5440.917600	95.670959	-40.407951	21.612507
5440.920947	97.190536	-40.291061	21.086500
5440.924257	98.184105	-40.349503	22.430742
5440.927634	99.703682	-41.459961	23.658096
5440.930928	100.405022	-42.336647	24.008768
5440.934263	101.866165	-42.511978	24.593222
5440.937593	103.151962	-42.687317	26.580362
5440.940931	104.788429	-43.213326	27.047926
5440.944258	105.840446	-43.622444	28.976624
5440.947591	107.535362	-44.732903	29.385740
5440.950925	108.996490	-44.849792	30.788427
5440.954255	110.399178	-45.726479	32.249561
5440.957589	112.152542	-45.784920	33.476913
5440.960924	114.022797	-46.310928	34.587376
5440.964281	115.893051	-47.070717	35.639393
5440.967586	117.295738	-48.531853	36.691406
5440.970921	119.808884	-47.947403	38.035652
5440.974261	120.977791	-49.583870	39.087666
5440.977594	122.731148	-49.583870	41.191700
5440.980921	124.776741	-50.518997	42.419052
5440.984251	127.056107	-51.863243	43.997078
5440.987588	128.984802	-51.687904	45.165985
5440.990973	131.147278	-52.447693	46.334892
5440.994259	132.666870	-53.032150	48.146698
5440.997590	134.244873	-54.376389	50.250729
5441.000920	136.758041	-55.895966	52.354763
5441.004253	139.154297	-56.363525	53.348331
5441.007613	141.433670	-56.714203	55.510811
5441.010917	143.771484	-57.824661	57.322620
5441.014256	146.927521	-58.876678	59.835766
5441.017582	149.206909	-59.578026	62.232029
5441.020914	151.077148	-60.454712	64.920517
5441.024246	153.999420	-61.623619	67.316772
5441.027580	156.512573	-62.324959	69.946815
5441.031813	162.240204	-64.721214	75.557571
5441.035199	164.928711	-65.656342	78.772064
5441.038516	168.143188	-66.474579	81.752777
5441.041903	171.591461	-67.818825	85.317947
5441.045125	174.396851	-69.163071	88.532433
5441.048435	177.260681	-70.156631	92.448273
5441.051800	180.533600	-71.150208	96.948570
5441.055119	183.864990	-72.494446	101.565750
5441.058017	186.611938	-73.546463	105.014023
5441.061363	190.235535	-74.715370	110.449448
5441.064699	194.092926	-75.708946	116.118645
5441.068057	197.950317	-77.403862	120.443604
5441.071394	201.749268	-78.455879	126.697250
5441.074668	205.957336	-79.800117	132.658676
5441.078005	209.697845	-80.910583	138.210983
5441.080911	213.146118	-82.371712	143.821732
5441.084249	217.412628	-83.189949	150.309174
5441.087577	220.276459	-84.651085	156.329041
5441.090906	224.659851	-86.229111	163.167160
5441.094269	228.867920	-87.281128	170.180588
5441.097581	232.140839	-88.450035	177.544708
5441.100911	236.173584	-90.086502	185.727051
5441.104244	239.855652	-90.378723	193.149628
5441.107573	243.713043	-92.015198	200.922852
5441.110907	247.804199	-92.482758	209.222092
5441.114246	251.194061	-94.294563	217.462891
5441.117575	254.992981	-95.288139	226.814133
5441.120901	258.441254	-96.398598	236.106949
5441.124237	262.064880	-96.690826	245.107544
5441.127590	264.928711	-98.093513	255.043259
5441.130909	268.493866	-98.794861	265.095856
5441.134238	271.474579	-99.379311	274.914642
5441.137604	274.689087	-100.314430	286.720612
5441.140902	277.786682	-101.191124	297.825256
5441.144247	280.416718	-101.541786	309.105194
5441.147569	282.988312	-102.476913	320.034485
5441.150910	285.384583	-103.061371	332.366455
5441.154238	287.488586	-103.470490	345.107544
5441.157570	289.826416	-103.879601	358.783752
5441.160903	291.871979	-103.821152	371.407959
5441.164233	292.748688	-104.405609	385.551727
5441.167570	294.502045	-104.756287	398.818817
5441.170903	295.495636	-103.938049	413.547028
5441.174230	294.911163	-104.230278	427.807709
5441.177569	295.787842	-103.762718	443.646423
5441.180905	295.612488	-103.236710	459.952667
5441.184231	294.151367	-102.827591	474.797760
5441.187575	292.456451	-101.775566	491.337799
5441.190936	290.410858	-100.781998	507.176483
5441.194232	288.014587	-99.671539	523.891907
5441.197563	285.092346	-97.392174	540.022827
5441.200906	281.001160	-96.223267	556.387512
5441.204233	277.026886	-94.060783	571.758667
5441.208859	266.565155	-88.683815	603.026917
5441.212210	259.727081	-85.819992	619.683838
5441.215105	252.772064	-82.488602	635.230347
5441.218524	245.466400	-79.215668	649.140259
5441.221854	236.991821	-75.299828	662.641174
5441.225147	227.874359	-71.617767	675.557556
5441.228410	218.523071	-66.825249	689.526062
5441.231770	209.171844	-62.734077	701.273560
5441.235085	197.833435	-58.000000	713.371704
5441.237983	185.735260	-52.389244	723.891907
5441.241321	173.987732	-48.005844	733.535400
5441.244680	161.947998	-42.336647	742.302185
5441.248032	148.213318	-36.609001	751.828796
5441.251339	134.829346	-30.881357	757.731812
5441.254672	120.860901	-24.744593	764.453003
5441.257982	107.067802	-19.133839	769.479309
5441.260895	92.982468	-13.347750	774.154907
5441.264232	78.371132	-7.269433	776.551147
5441.267555	63.175339	-1.249562	779.765686
5441.270892	48.622444	4.068965	780.174805
5441.274234	33.368206	11.316190	779.940979
5441.277556	17.412626	17.628288	778.012268
5441.280887	2.333725	23.414377	776.551147
5441.284223	-13.388077	29.375803	772.401550
5441.287563	-27.707188	34.928112	768.953308
5441.290889	-43.078316	40.889542	764.102295
5441.294227	-57.748100	46.850967	757.673340
5441.297554	-72.885445	52.286385	751.127441
5441.300894	-87.438332	57.780243	742.360657
5441.304220	-102.049675	63.332550	734.002930
5441.307558	-115.550560	69.118645	724.301025
5441.310919	-129.577423	73.794266	713.488647
5441.314233	-142.026306	78.703682	703.611389
5441.317560	-154.884277	82.911743	690.870300
5441.320889	-166.222687	87.704262	678.070740
5441.324224	-178.496185	91.269432	664.862061
5441.327556	-189.074799	94.893044	650.542969
5441.330890	-199.185852	99.217995	636.399170
5441.334216	-208.946228	102.724716	621.729431
5441.337556	-218.005249	105.939217	606.416748
5441.340885	-225.194061	108.919922	590.811829
5441.344221	-232.908813	111.783745	575.440735
5441.347546	-240.682068	114.355347	558.959106
5441.350890	-247.461731	116.108711	543.938660
5441.354253	-252.546448	118.154289	527.749329
5441.357552	-256.696075	119.673874	510.916992
5441.360884	-261.021057	121.193451	494.727631
5441.364212	-265.287537	122.245468	479.824097
5441.367550	-267.917603	123.355927	463.108704
5441.370886	-270.080078	124.291054	448.906494
5441.374215	-271.716553	124.232605	433.126251
5441.377549	-273.762146	123.823494	417.755127
5441.380882	-274.755707	124.933952	403.845093
5441.385490	-275.047943	124.115723	376.609589
5441.388850	-275.047943	123.823494	362.290466
5441.391799	-274.288147	123.122147	349.023376
5441.395103	-273.703674	122.420807	336.399170
5441.398520	-272.008789	121.544128	323.658081
5441.401825	-270.839874	120.901222	311.910553
5441.405230	-269.144958	118.972534	300.630615
5441.408394	-266.748688	117.920509	289.116882
5441.411726	-264.936890	116.751602	278.129150
5441.414633	-261.956177	115.290466	268.427246
5441.417980	-260.144348	113.887779	258.140869
5441.421302	-257.572784	112.251312	247.971359
5441.424629	-254.182953	110.614838	239.204559
5441.427990	-251.377563	109.270599	229.619507
5441.431326	-248.513733	106.932785	220.502060
5441.434659	-245.123932	105.646988	212.027466
5441.437549	-241.734070	103.601402	202.910004
5441.440908	-238.461151	102.081825	195.136765
5441.444209	-234.895966	100.036232	187.597305
5441.447554	-231.506134	97.932198	179.298065
5441.450877	-227.707184	96.646400	172.693741
5441.454206	-224.726501	95.185265	165.329636
5441.457537	-221.336639	93.139687	157.614853
5441.460874	-217.829926	91.094093	150.659851
5441.464206	-214.264740	89.516075	145.165985
5441.467538	-210.348907	88.288719	138.503220
5441.470872	-206.316193	86.769142	131.781998
5441.474203	-203.510803	84.372879	126.872589
5441.477540	-199.770294	82.911743	120.502045
5441.480868	-195.445343	81.275276	115.767967
5441.484226	-192.230865	79.580360	110.332550
5441.487539	-188.490356	77.768555	105.130920
5441.490871	-184.866730	76.015190	100.922852
5441.494206	-181.827606	75.080063	97.123901
5441.497539	-178.496185	73.326706	92.565163
5441.500866	-174.463470	72.274689	88.532433
5441.504241	-171.774994	70.872002	84.733490
5441.507536	-168.268250	69.118645	81.051430
5441.510870	-165.287567	68.475739	77.486267
5441.514206	-162.131500	67.073051	73.687317
5441.517535	-159.326111	65.085915	71.583282
5441.520865	-156.520752	64.033897	67.959671
5441.524199	-153.890717	62.806549	65.563408
5441.527572	-150.734650	61.754532	63.225597
5441.530863	-147.578613	60.293396	59.660435
5441.534205	-145.065460	59.533600	57.497952
5441.537535	-142.318512	58.656929	55.510811
5441.540866	-139.746918	57.195793	53.231441
5441.544195	-137.759796	56.728226	51.887199
5441.547531	-135.538879	55.325539	48.964931
5441.550858	-133.259491	54.039742	47.620689
