time (s)	magX	magY	magZ
6811.910483	204.437744	-96.807716	-64.828171
6811.913819	207.652252	-97.801285	-68.276451
6811.917147	211.509644	-99.262421	-71.841614
6811.920477	214.081238	-100.431328	-74.763885
6811.923816	217.880188	-101.775566	-77.919930
6811.927146	221.445343	-103.178261	-82.361778
6811.930478	224.659851	-103.996498	-85.693161
6811.933810	228.049683	-105.983635	-89.784340
6811.937180	231.731750	-106.918762	-93.641731
6811.940477	235.647583	-107.912331	-98.375809
6811.943814	239.738739	-109.724136	-102.876091
6811.947146	243.713043	-110.717712	-107.142609
6811.950477	247.862640	-112.471077	-111.233788
6811.953808	251.544708	-113.581535	-115.792511
6811.957143	255.460541	-115.568680	-121.169495
6811.960481	259.084167	-117.380486	-126.078903
6811.963810	262.532440	-119.133835	-131.514328
6811.967144	267.266510	-120.302742	-137.125076
6811.970474	271.533020	-121.822327	-142.385147
6811.973825	275.331970	-122.991234	-148.521912
6811.977153	279.423126	-124.335480	-154.424896
6811.980495	283.923431	-126.790192	-160.444778
6811.983810	287.780823	-127.842194	-166.464645
6811.987138	292.573364	-128.894211	-173.010513
6811.990472	296.606079	-131.056702	-180.959091
6811.995110	304.963745	-134.154297	-194.050842
6811.998051	309.580933	-135.790771	-201.298080
6812.001360	313.555237	-137.310349	-209.305084
6812.004759	318.289307	-138.713028	-217.604309
6812.008055	322.848022	-140.174164	-225.728241
6812.011411	327.056091	-142.219757	-234.319702
6812.014651	332.549957	-143.564011	-243.028061
6812.017981	336.524231	-145.726471	-252.145523
6812.021318	340.615417	-147.012283	-261.730560
6812.024228	345.700165	-148.414963	-272.893646
6812.027561	350.843353	-149.759201	-282.829346
6812.030926	354.992981	-150.694336	-293.524841
6812.034249	359.843933	-151.980133	-305.798340
6812.037588	365.279358	-152.856812	-319.240784
6812.040927	370.364105	-153.967270	-330.579193
6812.044228	374.513733	-154.376389	-343.729401
6812.047132	379.247803	-155.194626	-358.165405
6812.050465	383.923431	-156.012863	-372.309174
6812.053813	388.131500	-156.246643	-387.037415
6812.057133	392.222656	-157.473984	-402.350098
6812.060468	396.255402	-157.006424	-417.779663
6812.063803	400.814148	-157.649338	-433.618378
6812.067130	403.619507	-158.116898	-449.983032
6812.070462	407.769135	-157.357101	-467.458221
6812.073794	410.632965	-157.123322	-484.758057
6812.077127	413.379913	-156.772644	-501.298065
6812.080461	416.185272	-155.895966	-519.240723
6812.083811	417.704834	-155.019287	-536.832825
6812.087131	419.049103	-153.967270	-554.775574
6812.090462	421.386902	-152.856812	-572.952087
6812.093796	421.386902	-151.045013	-591.888367
6812.097132	422.906494	-149.291641	-610.415527
6812.100498	422.088226	-147.596725	-629.644043
6812.103798	421.679108	-146.077148	-648.463440
6812.107134	420.744019	-143.973114	-667.750366
6812.110458	419.224426	-141.810638	-686.628296
6812.113795	417.587952	-138.654587	-706.032104
6812.117132	415.483917	-136.316772	-724.442444
6812.120459	411.977173	-132.693161	-742.911133
6812.123796	408.587372	-129.654007	-761.496765
6812.127144	403.970184	-127.023972	-781.134399
6812.130462	399.995880	-123.049683	-798.901794
6812.133791	394.618927	-119.192284	-816.610779
6812.137126	388.073059	-113.990646	-834.319641
6812.140454	381.351837	-109.431915	-853.372864
6812.143790	373.461731	-104.697845	-869.153076
6812.147121	365.454681	-99.671539	-886.336060
6812.150464	357.155457	-94.002335	-903.635803
6812.153790	348.037964	-87.573349	-920.351257
6812.157123	337.926941	-81.319695	-936.248352
6812.160458	327.172974	-74.773819	-951.970154
6812.163828	315.133240	-67.409698	-966.347717
6812.167123	303.035065	-59.694916	-980.257751
6812.170480	289.767975	-51.804794	-992.823425
6812.175084	262.707794	-34.329628	-1017.136719
6812.177969	247.979553	-25.796610	-1027.189453
6812.181337	232.842194	-16.328463	-1036.073120
6812.184703	216.945068	-6.684979	-1043.028076
6812.188073	199.820587	4.068965	-1050.333740
6812.191377	183.689667	14.647574	-1057.639404
6812.194684	166.156067	24.817066	-1061.321411
6812.197966	148.096436	35.512566	-1065.588013
6812.200882	130.036819	45.857391	-1067.282837
6812.204211	111.334305	56.260666	-1070.029785
6812.207547	93.976036	67.365280	-1069.503906
6812.210873	74.922852	77.710106	-1067.341309
6812.214225	57.097019	88.054939	-1064.652832
6812.217569	37.926945	97.990646	-1061.029297
6812.220898	19.575104	108.452362	-1058.808350
6812.223781	0.989481	117.978958	-1051.677979
6812.227117	-16.894798	127.388664	-1045.891968
6812.230447	-34.662186	136.798370	-1037.651123
6812.233780	-52.312683	146.266510	-1028.708984
6812.237120	-68.618935	154.857971	-1020.000610
6812.240447	-85.158966	162.981888	-1009.305054
6812.243783	-101.874336	170.229111	-998.960266
6812.247113	-117.771477	177.534775	-987.446533
6812.250481	-133.317963	184.957336	-975.465210
6812.253786	-147.870850	191.269424	-964.477478
6812.257126	-162.774384	197.698425	-949.573914
6812.260445	-176.099945	204.127411	-937.358765
6812.263777	-189.600830	209.212158	-922.864380
6812.267113	-203.160156	214.939804	-909.012817
6812.270443	-214.381653	219.673859	-894.343018
6812.273776	-225.310913	224.115723	-878.679687
6812.277109	-236.532440	228.674454	-863.834595
6812.280443	-247.052612	232.590286	-847.411499
6812.283775	-256.696075	235.454117	-830.637573
6812.287110	-266.748688	238.843964	-814.214478
6812.290464	-275.047943	242.292236	-796.563965
6812.293812	-284.457642	245.039154	-778.796570
6812.297109	-291.178864	247.435425	-762.607239
6812.300462	-298.601410	249.597900	-744.606018
6812.303778	-305.556396	251.351257	-728.358276
6812.307106	-311.459381	253.396835	-711.058411
6812.310438	-316.894806	254.624191	-694.109253
6812.313782	-321.804230	256.026886	-675.991211
6812.317112	-327.005859	256.845123	-658.808289
6812.320444	-330.571014	257.663361	-641.040894
6812.323777	-334.019287	258.949158	-623.331970
6812.327104	-336.883118	258.773834	-605.213867
6812.330438	-339.162476	258.656921	-589.141418
6812.333772	-341.558746	257.838715	-573.244263
6812.337103	-342.610779	257.838715	-555.476868
6812.340440	-343.954987	256.903564	-540.456421
6812.343778	-344.773224	255.909988	-523.624146
6812.347107	-345.591492	253.572174	-508.019257
6812.350434	-345.123932	253.630630	-493.057251
6812.354692	-344.247223	249.247208	-464.945038
6812.357980	-343.721222	247.026291	-451.853302
6812.361283	-343.195221	245.448273	-437.300415
6812.364612	-341.383423	242.935120	-423.974854
6812.367977	-339.279358	241.240204	-410.941559
6812.371306	-338.402679	238.843964	-399.252472
6812.374700	-335.947998	236.330795	-387.212738
6812.378047	-334.077759	232.999420	-376.166565
6812.380927	-331.564575	230.661606	-365.003510
6812.384206	-330.220337	228.089996	-353.840424
6812.387550	-328.700775	225.343079	-343.320282
6812.390858	-325.603149	222.713028	-333.852142
6812.394188	-322.622437	220.024551	-324.033325
6812.397525	-320.459961	216.576263	-314.331390
6812.400857	-318.355957	213.595551	-305.564575
6812.404186	-315.725891	210.556412	-296.388672
6812.407095	-312.628296	207.575699	-287.095856
6812.410431	-310.407349	205.004089	-279.497955
6812.413760	-307.835785	202.140259	-271.257141
6812.417094	-305.088837	199.393341	-263.893036
6812.420428	-301.523682	196.646408	-256.119812
6812.423809	-298.601410	193.724136	-247.995911
6812.427106	-295.153137	190.977203	-240.164215
6812.430433	-292.113983	188.405609	-233.384583
6812.433764	-289.191711	184.957336	-226.546463
6812.437093	-285.626526	182.385742	-220.351257
6812.440431	-282.587402	179.755692	-213.279373
6812.443761	-278.729980	177.300995	-207.025711
6812.447098	-275.690826	174.554062	-200.070724
6812.450430	-271.774994	172.566925	-194.050842
6812.453762	-268.560486	170.170654	-187.271194
6812.457091	-265.170685	167.482162	-182.361786
6812.460425	-261.430176	165.027466	-176.341904
6812.463756	-258.624786	162.923431	-170.380478
6812.467086	-255.760956	160.468719	-166.347748
6812.470423	-252.663361	158.423141	-160.795441
6812.473760	-249.039764	155.383987	-155.301590
6812.477093	-246.000580	153.981293	-150.216827
6812.480425	-242.961426	151.994156	-145.482758
6812.483758	-239.571594	149.539459	-141.157806
6812.487093	-236.590881	147.318527	-137.300415
6812.490432	-233.902405	145.565170	-133.150787
6812.493759	-230.804810	143.870255	-129.001160
6812.497094	-228.116302	141.181763	-125.611343
6812.500425	-225.135590	139.253067	-122.922852
6812.503758	-222.680878	137.090591	-118.188774
6812.507089	-220.343079	136.389252	-115.208069
6812.510423	-218.472809	134.109879	-111.642899
6812.513752	-216.251892	132.531860	-109.071304
6812.517111	-213.680298	131.070724	-106.265930
6812.520419	-210.874908	128.908234	-103.811218
6812.523755	-209.764465	127.154877	-100.947403
6812.527085	-207.368195	126.219757	-98.901810
6812.530421	-205.556396	124.466385	-96.447105
6812.535105	-201.991211	120.492104	-92.122154
6812.538011	-199.770294	119.498535	-90.602570
6812.541346	-198.192291	117.978958	-88.498543
6812.544588	-196.731140	116.868500	-86.745178
6812.547929	-194.977783	115.933372	-84.582703
6812.551268	-192.523071	114.238457	-83.355354
6812.554672	-190.769714	112.718872	-81.952660
6812.557950	-189.074799	111.900642	-79.147278
6812.560888	-187.613678	110.322609	-78.212158
6812.564201	-185.801849	108.861488	-76.809464
6812.567591	-184.749847	108.277031	-74.296318
6812.570839	-182.996490	107.166573	-73.185860
6812.574180	-180.834015	106.289894	-71.140274
6812.577495	-180.132690	105.413200	-70.614265
6812.580839	-178.437744	104.127403	-68.451782
6812.584171	-177.677979	102.724716	-67.224434
6812.587075	-176.041504	102.198715	-65.412621
6812.590411	-174.229706	101.964935	-64.185272
6812.593752	-172.885437	100.620689	-62.899475
6812.597100	-171.833435	99.627121	-61.263000
6812.600412	-170.430756	99.217995	-60.210987
6812.603749	-169.437164	98.165985	-58.808300
6812.607075	-167.800690	97.581528	-56.704266
6812.610412	-166.281128	96.529510	-55.769142
6812.613758	-165.112213	95.886612	-54.950905
6812.617085	-164.118652	95.419052	-53.489777
6812.620409	-163.008179	94.425484	-53.197548
6812.623745	-162.014618	93.782578	-52.145531
6812.627079	-161.021057	93.548798	-50.625950
6812.630409	-160.436584	93.198128	-50.567505
6812.633744	-159.559906	92.379890	-49.047924
6812.637080	-158.566345	91.678551	-47.937466
6812.640443	-157.397430	91.035652	-47.469902
6812.643738	-156.812988	90.743423	-47.060783
6812.647077	-155.819397	90.042076	-46.359440
6812.650405	-155.468719	89.399185	-46.359440
6812.653741	-154.475159	89.048508	-45.891876
6812.657073	-154.592041	88.697838	-45.599651
6812.660404	-154.416718	88.113388	-45.599651
6812.663742	-153.773834	88.054939	-45.190533
6812.667073	-153.832245	87.119812	-45.248978
6812.670409	-153.306244	86.535355	-44.021626
6812.673742	-153.423157	86.243126	-45.190533
6812.677092	-152.429565	85.834015	-43.963181
6812.680405	-152.780243	85.658676	-44.430744
6812.683770	-153.364685	84.840439	-44.489189
6812.687064	-153.130920	84.723549	-44.489189
6812.690405	-152.429565	85.191109	-44.372299
6812.693730	-152.838684	85.132668	-43.670952
6812.697070	-152.254242	85.074219	-43.554062
6812.700402	-152.254242	83.846870	-42.677383
6812.703737	-152.838684	84.080650	-43.320282
6812.707067	-152.663361	84.606659	-43.612507
6812.710406	-152.137360	84.255989	-42.852718
6812.715075	-152.312683	83.846870	-42.969608
6812.718017	-152.254242	83.437752	-42.209820
6812.721320	-152.663361	84.139099	-41.976040
6812.724595	-152.137360	83.788422	-43.203392
6812.727947	-151.786682	83.788422	-41.976040
6812.731247	-151.260651	83.788422	-42.268265
6812.734602	-151.962006	83.496201	-42.852718
6812.737951	-151.903564	83.437752	-42.034485
6812.740842	-152.780243	84.139099	-43.028053
6812.744197	-152.663361	84.255989	-42.385155
6812.747511	-152.488007	84.372879	-43.612507
6812.750851	-153.189362	84.080650	-43.261837
6812.754158	-154.299805	84.314438	-43.554062
6812.757491	-153.656921	84.606659	-43.261837
6812.760817	-154.299805	84.840439	-43.612507
6812.764153	-155.468719	84.957329	-43.554062
6812.767063	-155.468719	85.074219	-43.378727
6812.770403	-155.877838	85.015778	-44.839859
6812.773729	-157.222107	84.957329	-45.833431
6812.777068	-157.338989	85.366447	-45.248978
6812.780395	-158.507874	85.775566	-45.599651
6812.783725	-159.150787	86.535355	-46.593220
6812.787064	-160.144348	86.944481	-47.294563
6812.790393	-161.371704	87.002922	-48.521919
6812.793721	-161.839264	87.178261	-49.223263
6812.797076	-162.715973	87.528931	-50.099941
6812.800419	-164.469299	87.762711	-50.918175
6812.803729	-165.112213	88.522499	-51.385738
6812.807056	-166.164246	88.697838	-51.794857
6812.810389	-168.034485	89.048508	-53.431328
6812.813736	-169.144928	89.691406	-54.424900
6812.817061	-170.547638	90.275856	-55.301579
6812.820392	-171.424316	91.094093	-57.054939
6812.823720	-172.593231	91.152542	-58.165401
6812.827059	-174.288116	91.795441	-58.399185
6812.830389	-175.398590	92.087669	-60.269436
6812.833721	-176.918182	92.905899	-60.795441
6812.837052	-178.145538	93.899467	-62.782585
6812.840391	-179.372894	93.782578	-63.951492
6812.843735	-180.483337	94.425484	-64.886620
6812.847054	-182.295166	95.243713	-65.821747
6812.850383	-184.399170	95.886612	-66.873764
6812.853716	-185.626526	96.646400	-69.211571
6812.857052	-186.795441	97.698418	-70.497368
6812.860400	-188.957916	98.399765	-71.841614
6812.863720	-189.776154	99.217995	-73.361198
6812.867053	-191.529510	100.153122	-75.114555
6812.870385	-193.808899	101.029808	-76.692574
6812.873748	-195.503815	101.789597	-78.562828
6812.877049	-197.607819	102.374046	-79.907074
6812.880386	-199.419647	103.893623	-80.959091
6812.883716	-201.114563	104.945641	-82.887787
6812.887079	-202.926361	105.939217	-85.225601
6812.890382	-204.971924	107.400352	-87.154297
6812.895067	-209.706024	109.153702	-91.187027
6812.897941	-211.810028	109.562828	-92.648163
6812.901340	-213.855652	110.965523	-95.804207
6812.904661	-216.251892	112.075981	-98.901810
6812.907900	-218.881927	113.420219	-101.648750
6812.911242	-221.161316	114.121559	-104.571007
6812.914561	-223.499146	115.290466	-106.908821
6812.917952	-226.304504	116.868500	-110.240211
6812.921256	-229.168335	117.394501	-113.513153
6812.924163	-232.090607	118.797188	-117.078316
6812.927500	-235.538879	119.673874	-121.052597
6812.930830	-237.993591	121.251900	-125.494446
6812.934135	-241.558746	121.953239	-128.825836
6812.937469	-244.714783	123.648163	-132.975449
6812.940813	-248.163055	125.693741	-137.417313
6812.944156	-251.436005	127.330215	-140.982468
6812.947041	-255.293396	128.148453	-144.430740
6812.950375	-258.274109	129.258911	-149.457031
6812.953711	-261.137939	130.486267	-154.717133
6812.957045	-264.586212	131.655182	-159.275864
6812.960371	-268.385162	133.116302	-164.302155
6812.963708	-271.891876	135.044998	-169.094681
6812.967043	-275.515503	135.512558	-174.530106
6812.970370	-278.671539	137.207474	-180.199310
6812.973710	-282.704254	138.610168	-185.868500
6812.977037	-287.204559	139.486847	-191.011688
6812.980379	-289.776154	140.655746	-197.616013
6812.983718	-293.691986	143.285797	-202.876099
6812.987047	-297.958496	144.688477	-209.421982
6812.990371	-300.471680	144.863831	-215.500290
6812.993709	-304.679749	146.967865	-222.163071
6812.997044	-308.595581	148.370544	-228.650482
6813.000372	-312.745178	149.831665	-235.079498
6813.003737	-314.732330	151.818817	-242.385162
6813.007043	-319.641754	153.513733	-250.216827
6813.010372	-323.382233	154.741089	-257.347168
6813.013704	-326.596741	156.435989	-264.652832
6813.017041	-330.512573	157.488022	-273.244293
6813.020372	-334.603760	159.708954	-281.718903
6813.023707	-339.045593	160.936295	-290.310333
6813.027035	-342.084747	162.572754	-298.901825
6813.030376	-346.351288	163.800110	-308.837524
6813.033698	-350.500885	165.085922	-319.883698
6813.037033	-353.423157	166.371704	-329.702515
6813.040369	-357.338989	167.189941	-340.865570
6813.043699	-361.488617	168.125076	-351.093506
6813.047065	-364.586212	169.293976	-362.081238
6813.050365	-368.268250	170.112213	-373.594971
6813.053698	-371.833435	170.755112	-385.868500
6813.057033	-375.866150	171.573349	-398.784943
6813.060381	-378.320862	171.924026	-412.110474
6813.063700	-381.418488	172.099350	-425.202240
6813.067028	-384.866760	171.807129	-438.936859
6813.070362	-387.496826	171.924026	-453.548218
6813.075045	-392.464661	170.696671	-483.881348
6813.077921	-395.620697	169.703094	-498.258942
6813.081324	-397.841614	168.241959	-514.506714
6813.084631	-398.893646	167.014603	-529.936218
6813.087952	-399.945648	166.137924	-546.242493
6813.091253	-401.348358	164.092346	-562.314941
6813.094545	-402.166565	163.040314	-578.270569
6813.097874	-401.932770	160.527176	-594.109253
6813.100785	-402.108154	158.832260	-612.402649
6813.104120	-400.705444	155.734650	-628.416687
6813.107474	-399.887177	153.747513	-646.417847
6813.110805	-398.367645	151.059021	-662.899414
6813.114139	-397.490936	148.253647	-680.374634
6813.117527	-394.451782	145.214493	-697.440674
6813.120782	-391.061981	141.532440	-716.201599
6813.123692	-388.431946	138.201050	-732.683228
6813.127024	-385.100525	134.285217	-749.281677
6813.130359	-379.840424	130.720047	-767.341309
6813.133712	-375.457062	126.628868	-784.816467
6813.137029	-369.787842	121.953239	-803.343628
6813.140355	-363.767975	117.511398	-820.585022
6813.143692	-357.105225	111.783745	-838.118591
6813.147029	-349.273529	106.874344	-855.827576
6813.150354	-341.792511	101.438919	-872.952026
6813.153694	-333.317963	94.951485	-889.667419
6813.157025	-323.966705	87.996490	-906.791931
6813.160352	-314.030975	81.625946	-923.974854
6813.163691	-303.452393	74.670952	-938.644653
6813.167023	-292.230865	67.131500	-955.418396
6813.170351	-280.775574	58.715370	-971.140198
6813.173737	-267.625366	50.883690	-985.985413
6813.177046	-255.994751	42.233780	-1000.304443
6813.180353	-242.552307	32.707191	-1014.506653
6813.183683	-228.525421	23.998831	-1027.715454
6813.187021	-213.972534	14.939801	-1039.755127
6813.190362	-198.426056	3.542957	-1052.554687
6813.193685	-183.873169	-5.574518	-1062.139648
6813.197019	-166.690247	-16.445354	-1073.770386
6813.200353	-149.916412	-26.731733	-1082.128052
6813.203679	-133.376373	-36.492111	-1088.966187
6813.207017	-116.193443	-47.012276	-1097.031616
6813.210351	-98.893631	-58.233780	-1101.181274
6813.213682	-80.717125	-68.403275	-1106.090698
6813.217020	-63.066628	-78.981880	-1109.597290
6813.220370	-45.065460	-89.560493	-1111.292236
6813.223683	-26.947395	-99.262421	-1112.636475
6813.227014	-8.946228	-108.964355	-1111.759888
6813.230346	8.821158	-119.250732	-1110.766235
6813.233681	27.348335	-128.134430	-1107.668701
6813.237017	45.115723	-137.193466	-1103.752808
6813.240346	62.415550	-145.551147	-1100.187622
6813.243699	79.715370	-153.967270	-1093.875488
6813.247014	96.489189	-161.506714	-1087.037476
6813.250345	112.970779	-169.163071	-1078.153687
6813.254978	145.057281	-182.722382	-1058.866821
6813.257864	160.077728	-188.683807	-1048.755737
6813.261215	175.273529	-194.820572	-1037.008179
6813.264570	190.352417	-200.781998	-1022.981262
6813.267959	204.613098	-206.275879	-1008.954346
6813.271290	217.354187	-210.542374	-996.154846
6813.274571	230.387482	-214.867340	-980.140808
6813.277876	243.596161	-218.958496	-964.477478
6813.280770	254.992981	-222.991241	-949.690735
6813.284096	265.454712	-225.855042	-932.858521
6813.287438	276.676239	-229.303345	-915.617126
6813.290766	287.079468	-231.874924	-898.083557
6813.294096	296.722961	-233.978973	-880.725342
6813.297459	305.840424	-236.901215	-861.204529
6813.300799	313.847473	-238.713028	-840.924011
6813.303672	321.737579	-240.232620	-822.338318
6813.307021	328.867920	-242.395096	-802.116211
6813.310345	335.413788	-243.856216	-782.887756
