time (s)	magX	magY	magZ
6989.912678	168.201630	-86.872009	-52.905323
6989.916008	170.539459	-88.333145	-55.067799
6989.919346	173.286377	-89.794273	-57.931622
6989.922678	176.150208	-91.313850	-60.210987
6989.927370	181.234955	-93.768555	-65.003510
6989.930225	184.449432	-95.346588	-67.691994
6989.933720	187.547058	-96.924606	-70.380478
6989.936960	190.586212	-98.035065	-73.594978
6989.940269	193.333130	-99.437759	-77.160141
6989.943523	196.021637	-101.483337	-80.433083
6989.946891	200.054352	-103.178261	-84.348915
6989.950186	203.794861	-104.639397	-87.388077
6989.953099	206.892456	-106.801872	-91.303917
6989.956431	210.399200	-108.087662	-95.219757
6989.959790	214.373474	-109.373466	-99.836937
6989.963141	218.172424	-111.243721	-104.220345
6989.966464	221.503815	-114.516655	-108.311508
6989.969824	225.536530	-115.802460	-112.870255
6989.973091	229.218567	-117.497368	-118.539452
6989.976004	232.491516	-119.367615	-123.916428
6989.979339	237.167145	-121.763878	-130.111633
6989.982677	241.199860	-123.867905	-135.430161
6989.986003	246.050873	-125.855057	-141.216248
6989.989367	250.317352	-128.134430	-147.703690
6989.992676	254.233185	-129.770889	-154.600235
6989.996006	258.207489	-132.693161	-161.847458
6989.999340	261.655762	-134.914078	-168.334885
6990.002671	265.922272	-137.310349	-175.815887
6990.006001	270.130310	-139.297485	-184.173584
6990.009340	274.572174	-141.109299	-192.122147
6990.012671	279.247803	-143.505554	-199.836929
6990.016001	283.923431	-146.310928	-208.954422
6990.019333	287.780823	-148.473419	-218.071884
6990.022669	292.047333	-150.518997	-226.955597
6990.026000	296.606079	-152.798355	-236.599075
6990.029330	300.872589	-155.253067	-246.359436
6990.032695	305.723541	-157.357101	-257.931641
6990.036004	309.931610	-159.285797	-267.750458
6990.039329	314.081238	-162.324966	-279.030396
6990.042672	318.581512	-164.545883	-290.427246
6990.046008	322.964935	-166.591476	-303.168335
6990.049335	327.406769	-168.929291	-315.149628
6990.052670	330.971954	-170.916428	-327.890717
6990.056000	334.478668	-173.137344	-341.274689
6990.059331	338.569824	-175.533615	-355.243134
6990.062662	342.134979	-176.819397	-369.620697
6990.065996	346.050842	-178.865005	-384.348938
6990.069333	349.674469	-180.969025	-399.778473
6990.072660	353.414948	-182.371719	-415.208069
6990.076011	355.869659	-183.715958	-431.806519
6990.079333	357.213898	-185.293976	-448.638794
6990.082658	360.895966	-186.462891	-465.237305
6990.085999	363.000000	-187.222672	-484.582733
6990.089329	365.045593	-189.326706	-501.064301
6990.092661	365.688477	-189.618942	-520.585022
6990.095998	366.857391	-189.911163	-540.047302
6990.099334	368.201630	-190.437164	-558.399109
6990.103925	367.500305	-190.261841	-599.544678
6990.106894	366.506714	-190.378738	-619.065430
6990.110174	364.636475	-189.969604	-640.397949
6990.113531	362.415558	-189.151382	-661.438293
6990.116921	359.902405	-188.508484	-682.712463
6990.120296	355.694336	-187.690247	-702.817627
6990.123615	351.486267	-185.293976	-723.273499
6990.126844	346.226196	-184.125076	-745.307373
6990.130170	340.907654	-181.202805	-765.646423
6990.133100	334.537109	-179.917007	-786.862000
6990.136411	327.465210	-177.286972	-808.136108
6990.139752	319.224426	-173.604919	-827.715332
6990.143085	310.282288	-170.741089	-848.229614
6990.146433	301.047913	-166.123917	-867.925781
6990.149784	290.235535	-162.324966	-886.219177
6990.153107	278.897125	-157.590881	-904.863220
6990.155990	266.974274	-153.149033	-922.805908
6990.159325	255.168304	-147.421387	-939.170654
6990.162684	241.842804	-142.161316	-954.892456
6990.165985	227.056091	-135.498535	-970.088196
6990.169317	212.210999	-129.770889	-982.770874
6990.172661	196.606079	-122.523674	-996.388672
6990.175988	180.708954	-115.919350	-1007.960815
6990.179322	164.110443	-107.795448	-1018.305603
6990.182650	146.927521	-99.671539	-1027.890747
6990.185984	129.452362	-91.255409	-1035.780884
6990.189321	111.042084	-82.722382	-1042.034546
6990.192648	92.807129	-74.247810	-1048.112915
6990.195983	74.455292	-64.779663	-1051.853394
6990.199321	55.577442	-55.369957	-1055.769165
6990.202649	35.413795	-45.492699	-1056.411987
6990.205989	15.425484	-36.492111	-1057.405640
6990.209312	-3.627703	-27.199301	-1054.307983
6990.212648	-22.680889	-17.263588	-1053.139160
6990.215982	-43.428986	-7.386323	-1048.580322
6990.219330	-62.248390	2.198714	-1042.911255
6990.222656	-81.476913	13.186441	-1036.891357
6990.225980	-100.997665	23.122150	-1028.241455
6990.229322	-119.466393	32.940971	-1019.533020
6990.232648	-137.292236	42.584450	-1008.720642
6990.235981	-155.410278	52.111046	-996.622375
6990.239311	-173.236115	61.403862	-985.167175
6990.242646	-190.243713	70.521332	-970.672668
6990.245977	-206.140839	79.931030	-957.697815
6990.249340	-221.570435	87.704262	-941.566895
6990.252642	-236.941559	95.945061	-925.786621
6990.255974	-251.436005	103.309174	-909.889526
6990.259312	-264.293976	110.322609	-890.193420
6990.262646	-277.794861	117.394501	-872.542908
6990.265975	-290.068390	123.881943	-854.834045
6990.269311	-301.874359	130.194046	-835.663940
6990.272648	-312.628296	136.155472	-816.376892
6990.275974	-322.797791	141.123306	-796.563965
6990.279327	-331.564575	145.974289	-776.926331
6990.284004	-347.286407	154.448853	-737.358826
6990.286903	-354.066040	158.423141	-717.545898
6990.290161	-359.969025	161.929871	-699.018677
6990.293491	-364.819977	165.319702	-679.322632
6990.296861	-369.086517	168.826416	-659.451172
6990.300177	-372.534790	170.813553	-639.638245
6990.303566	-376.742859	172.099350	-620.409668
6990.306893	-377.794861	173.677383	-601.707153
6990.310158	-381.126282	175.664520	-583.764465
6990.313070	-382.353607	177.300995	-565.412598
6990.316397	-382.353607	178.294571	-546.885437
6990.319729	-383.756317	178.586792	-529.118042
6990.323067	-383.580933	179.171249	-512.694885
6990.326394	-382.236725	179.229691	-494.401520
6990.329732	-381.710693	179.171249	-477.978394
6990.333087	-379.898895	178.995911	-461.789001
6990.335969	-378.788422	179.405029	-446.125671
6990.339302	-376.450623	178.645233	-429.877869
6990.342690	-374.463470	177.768555	-414.331390
6990.345972	-371.365875	176.541199	-399.603149
6990.349305	-368.560486	176.132095	-384.933380
6990.352637	-365.346008	174.437164	-370.731140
6990.355969	-361.780853	173.326706	-357.288727
6990.359338	-358.390991	172.625366	-343.846283
6990.362633	-354.533600	171.222687	-330.637634
6990.365975	-351.611328	169.936874	-318.422577
6990.369302	-347.286407	167.189941	-306.207489
6990.372633	-343.195221	165.728806	-293.875519
6990.375967	-338.694916	163.917007	-283.121582
6990.379296	-333.376404	161.462296	-272.309174
6990.382633	-328.876099	159.650497	-260.970764
6990.385964	-324.609589	157.429565	-251.268860
6990.389301	-320.284637	155.500870	-241.157806
6990.392628	-315.258331	152.753937	-232.332550
6990.395965	-311.342499	150.649918	-222.279938
6990.399298	-306.199310	149.013443	-214.156052
6990.402646	-300.939240	146.558731	-205.564590
6990.406014	-296.497375	144.454697	-196.856232
6990.409302	-291.997070	141.649323	-188.849213
6990.412631	-288.373474	140.188187	-181.368210
6990.415961	-282.645844	137.675034	-173.887207
6990.419297	-278.087097	135.395676	-167.399765
6990.422627	-273.236115	133.350098	-160.210999
6990.425963	-268.677399	131.479828	-153.840454
6990.429293	-265.112213	128.791351	-147.879013
6990.432626	-261.254822	126.862648	-141.800705
6990.435962	-255.994751	123.940392	-136.073059
6990.439290	-252.137360	121.836349	-130.228516
6990.442625	-247.637054	119.732315	-125.143784
6990.445986	-243.721222	117.394501	-119.883698
6990.449296	-239.337799	115.758034	-114.740501
6990.452626	-235.363525	114.413788	-110.357109
6990.455963	-232.324371	112.952652	-105.681465
6990.459293	-228.233185	110.907074	-102.291641
6990.462626	-224.492706	108.803040	-97.849800
6990.466880	-218.122162	106.523674	-90.544128
6990.470219	-214.732300	104.653419	-86.277618
6990.473472	-211.225616	102.374046	-83.121567
6990.476810	-208.244904	101.088249	-79.497955
6990.480136	-204.387512	99.977791	-76.634132
6990.483494	-201.289886	97.932198	-72.776741
6990.486829	-198.016968	96.587959	-70.205139
6990.489773	-194.802460	95.535942	-67.341324
6990.493062	-191.704834	93.841026	-64.243721
6990.496417	-188.899475	92.087669	-61.613682
6990.499721	-186.035645	91.386322	-59.158970
6990.503038	-183.464050	90.392746	-55.886032
6990.506378	-180.541779	88.697838	-53.548218
6990.509718	-177.736420	87.236702	-51.561077
6990.513044	-175.632385	86.301575	-49.690826
6990.515951	-173.294556	84.665108	-47.703682
6990.519289	-170.664520	83.320862	-45.073643
6990.522614	-168.560486	82.911743	-43.028053
6990.525954	-165.988892	81.684395	-40.690243
6990.529286	-163.125061	80.106369	-39.813560
6990.532630	-161.196381	78.586792	-37.241962
6990.535948	-159.559906	78.119232	-36.365284
6990.539285	-156.579193	76.833427	-34.495033
6990.542650	-154.533600	75.430740	-33.033901
6990.545950	-152.663361	75.021622	-31.280539
6990.549286	-150.851562	73.735825	-30.170076
6990.552616	-149.565735	73.092926	-28.708941
6990.555947	-147.111053	72.683807	-27.598478
6990.559278	-145.240784	71.047340	-26.020454
6990.562614	-143.838104	70.404442	-24.559322
6990.565943	-142.084747	69.703094	-23.916422
6990.569285	-140.448273	68.651085	-22.630625
6990.572613	-139.863831	67.832848	-22.513733
6990.575981	-138.052002	67.306839	-20.818819
6990.579279	-136.415527	66.663940	-19.942139
6990.582617	-135.246643	66.137932	-18.948568
6990.585949	-133.493286	65.436584	-18.714787
6990.589279	-131.739929	65.027473	-16.727644
6990.592605	-131.097015	64.150787	-16.727644
6990.595940	-129.402100	63.741676	-16.902979
6990.599282	-128.700745	62.864990	-16.376972
6990.602615	-127.531853	62.455879	-14.857394
6990.605956	-126.713615	61.637642	-14.448277
6990.609278	-125.486259	61.520752	-13.863824
6990.612606	-124.375801	61.228523	-14.039159
6990.615947	-123.323784	60.760956	-12.753361
6990.619306	-121.628868	60.351845	-12.052016
6990.622608	-121.453529	59.942726	-11.935125
6990.625947	-120.869072	59.942726	-11.233782
6990.629280	-119.700172	59.124489	-10.298656
6990.632604	-118.881935	58.715370	-10.473992
6990.635937	-117.362358	58.598480	-10.532437
6990.639276	-116.777916	58.189362	-9.538866
6990.643974	-115.492104	57.078896	-8.253069
6990.646815	-114.966087	56.845116	-8.019288
6990.650197	-113.914085	56.903564	-7.201053
6990.653580	-113.037407	56.552895	-7.434834
6990.656813	-112.803627	56.260666	-7.317943
6990.660123	-112.394493	56.026886	-7.201053
6990.663496	-111.693153	55.559319	-6.675044
6990.666806	-111.342491	55.793098	-6.265927
6990.669717	-111.167152	55.442429	-5.564582
6990.673062	-110.524254	55.267097	-5.564582
6990.676389	-110.232033	54.624191	-5.681473
6990.679736	-109.706017	54.331970	-6.207481
6990.683043	-109.355339	53.981293	-6.382817
6990.686351	-108.829338	54.273521	-6.090590
6990.689694	-109.238457	53.981293	-5.155464
6990.693031	-108.478661	54.215080	-4.921683
6990.695929	-108.303337	53.805962	-5.856810
6990.699266	-108.244881	53.455292	-4.863237
6990.702603	-108.303337	53.572182	-4.687901
6990.705957	-108.478661	53.572182	-4.278785
6990.709266	-108.069557	53.864403	-3.518995
6990.712601	-107.309761	53.455292	-4.746347
6990.715933	-107.835777	53.572182	-4.921683
6990.719264	-107.309761	53.338394	-4.863237
6990.722600	-107.835777	53.689072	-4.278785
6990.725931	-107.894218	53.864403	-4.863237
6990.729288	-107.660439	53.513733	-5.038574
6990.732597	-107.777321	54.448860	-4.220339
6990.735931	-108.069557	53.747513	-5.272355
6990.739265	-108.478661	53.630623	-5.973701
6990.742594	-108.303337	54.331970	-5.389246
6990.745928	-108.887779	54.273521	-5.798364
6990.749290	-108.829338	54.273521	-6.090590
6990.752592	-108.946220	54.741089	-5.564582
6990.755934	-108.946220	55.325539	-5.915255
6990.759260	-109.706017	55.267097	-6.090590
6990.762596	-110.056694	55.442429	-6.499708
6990.765932	-110.173576	55.500877	-6.850380
6990.769256	-110.758034	55.267097	-6.441263
6990.772596	-111.108711	55.968437	-7.084162
6990.775926	-111.985390	56.085335	-7.201053
6990.779258	-111.868507	56.728226	-6.967271
6990.782590	-112.569847	57.020454	-7.551724
6990.785925	-113.388069	56.728226	-7.025716
6990.789261	-113.972527	56.845116	-7.434834
6990.792628	-114.907661	57.312683	-8.369960
6990.795922	-115.316765	57.663353	-8.837523
6990.799260	-114.790764	58.072472	-9.071303
6990.802592	-116.135017	58.130913	-9.071303
6990.805919	-116.894798	58.656929	-9.129749
6990.809257	-118.005257	59.007599	-10.123320
6990.812587	-118.589714	59.241379	-10.181765
6990.815919	-119.641731	59.708939	-11.000000
6990.819253	-120.576866	59.884277	-10.883110
6990.823934	-121.745766	61.228523	-11.935125
6990.826799	-123.265343	61.111633	-13.220923
6990.830177	-124.025124	61.403862	-13.630040
6990.833531	-125.310936	62.397430	-14.623612
6990.836873	-126.655174	63.040329	-14.448277
6990.840106	-127.999413	63.449440	-15.266511
6990.843457	-129.226776	63.683228	-16.084745
6990.846764	-129.343658	64.793686	-16.669199
6990.849671	-131.330811	65.670364	-18.130331
6990.853006	-132.324371	66.430161	-17.721214
6990.856367	-133.610168	66.897720	-19.533022
6990.859717	-135.831085	67.482178	-20.701927
6990.863032	-137.175323	69.001755	-21.695499
6990.866366	-138.285797	69.469315	-22.572178
6990.869675	-139.863831	70.287552	-22.922852
6990.872584	-141.617187	71.281120	-24.734657
6990.875919	-144.071899	72.274689	-25.786673
6990.879272	-145.299255	72.625359	-26.020454
6990.882586	-146.935699	73.969604	-27.598478
6990.885912	-148.221497	75.255402	-28.825830
6990.889247	-150.559326	76.424309	-29.936296
6990.892581	-152.078888	76.424309	-31.806547
6990.895913	-154.299805	77.593216	-33.150791
6990.899250	-156.988312	78.703682	-34.144360
6990.902578	-158.449432	79.288139	-35.780830
6990.905920	-160.319702	80.398598	-37.475746
6990.909251	-162.657501	81.976624	-38.527760
6990.912580	-164.936890	82.853302	-40.748688
6990.915912	-166.573334	83.846870	-43.261837
6990.919246	-168.969604	84.957329	-45.482758
6990.922632	-171.891876	86.243126	-47.119228
6990.925946	-174.638794	87.353592	-48.989483
6990.929247	-177.385742	88.639389	-50.859734
6990.932581	-179.431305	89.632965	-53.665108
6990.935910	-181.886017	90.918762	-55.593807
6990.939240	-184.983643	92.496780	-58.516075
6990.942578	-187.438354	93.607246	-60.795441
6990.945907	-190.535950	95.594391	-62.957916
6990.949243	-194.510223	96.178841	-65.821747
6990.952580	-196.906494	97.932198	-68.334892
6990.955909	-199.419647	98.516655	-71.257164
6990.959241	-203.569244	100.737579	-74.822327
6990.962579	-206.257751	102.490936	-77.686150
6990.965942	-209.472229	103.952072	-81.309761
6990.969240	-212.920532	105.471649	-84.407364
6990.972578	-216.953247	107.049675	-88.966103
6990.975905	-219.700165	108.803040	-92.414383
6990.979242	-223.382233	111.082405	-96.973114
6990.982569	-226.421387	112.894203	-101.239624
6990.985904	-230.629456	114.589127	-105.681465
6990.989240	-233.960846	116.167160	-110.473991
6990.992609	-238.519592	118.037407	-115.383400
6990.997181	-245.533020	122.070129	-125.845123
6991.000543	-250.208649	124.583282	-130.754532
6991.003459	-253.189392	126.570419	-137.125076
6991.006802	-257.689636	128.616013	-142.852707
6991.010199	-261.956177	130.836929	-148.638809
6991.013492	-265.988892	132.648758	-155.593796
6991.016831	-270.956757	134.694336	-162.081238
6991.020088	-274.872589	136.564575	-169.211563
6991.023417	-279.782013	140.071304	-176.751022
6991.026744	-284.106964	141.473984	-184.524246
6991.029662	-287.847443	144.104034	-191.946823
6991.032987	-292.347748	146.500290	-199.194046
6991.036341	-296.964935	148.662766	-208.428391
6991.039688	-301.582123	150.766800	-216.552322
6991.043016	-305.907104	153.163055	-225.845108
6991.046392	-309.764465	154.857971	-234.027466
6991.049657	-314.206329	157.195786	-243.437180
6991.052605	-319.349518	159.416718	-253.489777
6991.055894	-323.615997	160.819397	-263.191711
6991.059239	-327.414978	163.215668	-273.711853
6991.062562	-331.097015	165.085922	-285.225586
6991.065897	-336.532440	167.306839	-296.914673
6991.069232	-341.149628	168.943298	-307.960846
6991.072560	-345.474579	170.345993	-319.474579
6991.075896	-348.981293	172.450027	-332.683228
6991.079227	-352.838684	173.969604	-345.482758
6991.082565	-355.585632	175.547623	-359.275848
6991.085895	-359.267700	177.184097	-372.367645
6991.089226	-363.066620	178.236115	-386.336060
6991.092562	-365.287537	179.463470	-401.356506
6991.095914	-368.794281	180.632385	-417.078308
6991.099229	-371.307434	181.625946	-431.631195
6991.102567	-373.177673	182.151947	-448.054382
6991.105903	-375.983063	182.677963	-464.185242
6991.109231	-376.859741	183.554642	-481.368225
6991.112558	-378.379303	183.437759	-498.609589
6991.115894	-378.788422	184.139099	-515.324890
6991.119224	-379.080688	184.489761	-533.618347
6991.122555	-378.905304	183.788422	-552.729980
6991.125893	-377.327301	183.028625	-571.257141
6991.129228	-377.327301	181.918167	-589.550537
6991.132558	-375.106354	181.392166	-608.895935
6991.135893	-373.002350	179.697250	-627.423157
6991.139248	-370.313873	177.710114	-646.242493
6991.142552	-366.105804	175.606079	-667.458191
6991.145889	-361.956177	172.976028	-686.978943
6991.149225	-357.748108	170.930450	-706.324341
6991.152552	-351.494476	167.073059	-725.319092
6991.155886	-345.065460	164.150787	-745.015198
6991.159228	-338.753387	160.585617	-764.302124
6991.162550	-329.986542	156.377563	-784.348877
6991.165884	-321.979553	151.935715	-802.642273
6991.169241	-312.277618	146.558731	-822.046143
6991.172566	-302.809479	141.532440	-841.683777
6991.177162	-281.593811	128.849808	-877.802979
6991.180540	-268.852722	121.719460	-895.102844
6991.183454	-255.994751	114.706024	-911.116821
6991.186759	-243.312103	107.751015	-928.007507
6991.190202	-229.051422	99.276443	-942.560425
6991.193490	-214.849213	91.736992	-958.165405
6991.196809	-199.594971	83.671532	-972.133850
6991.200065	-184.282288	74.612503	-983.589111
6991.203406	-167.800690	65.553474	-996.914612
6991.206309	-151.202209	56.611336	-1007.259521
6991.209642	-133.610168	47.669197	-1018.247131
6991.212992	-115.901237	37.908829	-1026.078857
6991.216306	-97.783173	28.323788	-1033.150879
6991.219662	-78.963768	18.329632	-1039.988892
6991.223000	-60.319695	8.744594	-1045.658081
6991.226331	-40.857391	-1.717124	-1048.463501
6991.229220	-21.278198	-11.360609	-1050.684448
6991.232546	-2.341904	-21.179428	-1054.541748
6991.235877	16.945063	-30.238459	-1053.080688
6991.239214	37.167152	-39.765053	-1050.918213
6991.242547	56.161896	-49.233200	-1050.450562
6991.245878	75.039749	-58.584450	-1044.664551
6991.249209	94.677383	-66.766808	-1039.755127
6991.252545	112.970779	-75.767387	-1033.326172
6991.255881	130.971954	-83.949738	-1026.371216
6991.259210	149.849792	-92.015198	-1015.850952
6991.262543	166.798950	-99.437759	-1005.096924
6991.265877	183.572754	-106.451195	-993.524780
6991.269219	199.469910	-114.575104	-980.842163
6991.272541	215.600830	-121.705429	-966.990601
6991.275879	230.504395	-127.433075	-953.606628
6991.279209	244.355927	-133.277618	-937.651062
6991.282540	257.681458	-138.829926	-921.052551
6991.285871	270.071899	-144.148453	-904.512512
6991.289211	281.468719	-149.233200	-886.920471
6991.292541	293.333130	-153.324371	-869.036255
6991.295878	303.619507	-157.473984	-850.275269
6991.299209	313.029205	-161.974289	-831.514282
6991.302542	321.912903	-165.305664	-811.116821
6991.305871	329.627686	-168.578613	-792.531250
6991.309213	336.232025	-171.968445	-772.718262
6991.312572	343.596130	-174.598480	-752.788391
6991.315875	348.680908	-176.877853	-731.806519
6991.319206	354.174744	-178.748108	-711.993530
6991.322541	358.675049	-181.085922	-692.355896
