time (s)	det(V)
3697.752072	1.618481	
3697.753650	1.618481	
3697.755350	1.617723	
3697.756907	1.442822	
3697.758632	1.158346	
3697.760201	0.945477	
3697.761884	0.697514	
3697.763424	0.462405	
3697.765144	0.220388	
3697.766664	-0.005895	
3697.768427	-0.268409	
3697.769901	-0.494986	
3697.771681	-0.740431	
3697.773165	-0.977691	
3697.774933	-1.225252	
3697.776423	-1.441951	
3697.778201	-1.623286	
3697.779690	-1.639697	
3697.781458	-1.639641	
3697.782955	-1.639673	
3697.784708	-1.639609	
3697.786215	-1.639637	
3697.787940	-1.639629	
3697.789474	-1.639697	
3697.791204	-1.639645	
3697.792732	-1.639697	
3697.794436	-1.639584	
3697.796005	-1.639746	
3697.797693	-1.639633	
3697.799246	-1.639721	
3697.800934	-1.639532	
3697.802513	-1.639681	
3697.804172	-1.639609	
3697.805764	-1.639798	
3697.807398	-1.639641	
3697.809010	-1.639746	
3697.810654	-1.639572	
3697.812258	-1.639725	
3697.813881	-1.639572	
3697.815528	-1.639782	
3697.817123	-1.639673	
3697.818804	-1.639810	
3697.820377	-1.639625	
3697.822060	-1.639770	
3697.823624	-1.639729	
3697.825308	-1.639774	
3697.826861	-1.639665	
3697.828555	-1.639790	
3697.830112	-1.639725	
3697.831824	-1.639738	
3697.833335	-1.639754	
3697.835092	-1.639754	
3697.836570	-1.639794	
3697.838353	-1.639806	
3697.839837	-1.639818	
3697.841613	-1.639774	
3697.843099	-1.639778	
3697.844887	-1.639786	
3697.846364	-1.639717	
3697.848136	-1.639838	
3697.849631	-1.639754	
3697.851386	-1.639701	
3697.852891	-1.639722	
3697.854626	-1.639673	
3697.856147	-1.639766	
3697.857867	-1.639733	
3697.859405	-1.639742	
3697.861113	-1.639693	
3697.862667	-1.639734	
3697.864366	-1.639734	
3697.865949	-1.639830	
3697.867440	-1.639685	
3697.869098	-1.639778	
3697.870596	-1.639701	
3697.872259	-1.639766	
3697.873758	-1.639778	
3697.875388	-1.639818	
3697.876864	-1.639717	
3697.878515	-1.639729	
3697.879989	-1.639830	
3697.881625	-1.639697	
3697.883110	-1.639665	
3697.884725	-1.639637	
3697.886246	-1.639770	
3697.887814	-1.639637	
3697.889364	-1.639689	
3697.890857	-1.639665	
3697.892489	-1.639737	
3697.894050	-1.639669	
3697.895670	-1.639653	
3697.897208	-1.639625	
3697.898875	-1.639705	
3697.900356	-1.639673	
3697.902070	-1.639754	
3697.903552	-1.639669	
3697.905272	-1.639689	
3697.906752	-1.639709	
3697.908486	-1.639701	
3697.909975	-1.639645	
3697.911674	-1.639596	
3697.913156	-1.639697	
3697.914877	-1.639568	
3697.916358	-1.639661	
3697.918117	-1.639621	
3697.919615	-1.639657	
3697.921366	-1.639665	
3697.922889	-1.639733	
3697.924632	-1.639701	
3697.926147	-1.639621	
3697.927870	-1.639645	
3697.929402	-1.639689	
3697.931118	-1.639576	
3697.932673	-1.639669	
3697.934371	-1.639609	
3697.935945	-1.639701	
3697.937629	-1.639556	
3697.939196	-1.639733	
3697.940855	-1.639504	
3697.942446	-1.633941	
3697.944114	-1.545757	
3697.945704	-1.493514	
3697.947341	-1.436827	
3697.948964	-1.378207	
3697.950579	-1.325243	
3697.952227	-1.293592	
3697.953829	-1.249740	
3697.955481	-1.208748	
3697.957090	-1.172867	
3697.958774	-1.136379	
3697.960353	-1.086355	
3697.962032	-1.037576	
3697.963599	-1.001132	
3697.965291	-0.949336	
3697.966851	-0.912106	
3697.968547	-0.881072	
3697.970106	-0.854090	
3697.971828	-0.816023	
3697.973345	-0.792888	
3697.975083	-0.761411	
3697.976567	-0.720624	
3697.978357	-0.687145	
3697.979844	-0.653423	
3697.981612	-0.617906	
3697.983101	-0.587919	
3697.984875	-0.562544	
3697.986369	-0.549199	
3697.988171	-0.522829	
3697.989657	-0.498809	
3697.991429	-0.480439	
3697.992922	-0.453458	
3697.994673	-0.426887	
3697.996181	-0.406068	
3697.997905	-0.381371	
3697.999439	-0.357181	
3698.001163	-0.342381	
3698.002706	-0.332068	
3698.004417	-0.315153	
3698.005957	-0.301324	
3698.007646	-0.293517	
3698.009198	-0.282190	
3698.010883	-0.250894	
3698.012470	-0.239961	
3698.014154	-0.223646	
3698.015744	-0.205954	
3698.017390	-0.190271	
3698.018976	-0.196362	
3698.020611	-0.183745	
3698.022241	-0.178694	
3698.023846	-0.169227	
3698.025512	-0.166827	
3698.027108	-0.145831	
3698.028792	-0.130870	
3698.030393	-0.126874	
3698.032055	-0.111896	
3698.033644	-0.100992	
3698.035351	-0.101386	
3698.036908	-0.099183	
3698.038609	-0.096311	
3698.040082	-0.098889	
3698.041650	-0.094107	
3698.043142	-0.081486	
3698.044672	-0.075372	
3698.046205	-0.070179	
3698.047772	-0.062831	
3698.049336	-0.053417	
3698.050842	-0.051182	
3698.052519	-0.057901	
3698.053996	-0.057135	
3698.055630	-0.055532	
3698.057145	-0.063287	
3698.058788	-0.060958	
3698.060267	-0.049461	
3698.061918	-0.039443	
3698.063391	-0.045401	
3698.065041	-0.034891	
3698.066515	-0.023366	
3698.068164	-0.032663	
3698.069665	-0.040043	
3698.071348	-0.042629	
3698.072871	-0.041860	
3698.074527	-0.047592	
3698.076069	-0.044950	
3698.077718	-0.033155	
3698.079281	-0.033086	
3698.080888	-0.033707	
3698.082469	-0.024188	
3698.084042	-0.014830	
3698.085656	-0.027398	
3698.087203	-0.027245	
3698.088879	-0.029211	
3698.090460	-0.038307	
3698.092131	-0.039334	
3698.093726	-0.025364	
3698.095416	-0.022967	
3698.097018	-0.026625	
3698.098696	-0.014838	
3698.100262	-0.005234	
3698.101957	-0.018596	
3698.103502	-0.017493	
3698.105218	-0.017972	
3698.106754	-0.022999	
3698.108465	-0.027612	
3698.109982	-0.016159	
3698.111699	-0.006644	
3698.113199	-0.007035	
3698.114976	-0.000485	
3698.116457	0.004446	
3698.118229	0.006419	
3698.119712	-0.002254	
3698.121484	-0.000711	
3698.122972	-0.002386	
3698.124708	-0.006761	
3698.126211	-0.004111	
3698.127939	0.006975	
3698.129470	0.005336	
3698.131197	0.012482	
3698.132725	0.018823	
3698.134439	0.030062	
3698.135977	0.017413	
3698.137668	0.018001	
3698.139225	0.019834	
3698.140913	0.007451	
3698.142487	0.004143	
3698.144157	0.018331	
3698.145749	0.023697	
3698.147402	0.029248	
3698.149008	0.035597	
3698.150624	0.040459	
3698.152241	0.031443	
3698.153870	0.023785	
3698.155543	0.028205	
3698.157121	0.026609	
3698.158782	0.014673	
3698.160391	0.025344	
3698.162042	0.035335	
3698.163633	0.037421	
3698.165334	0.046070	
3698.166896	0.041180	
3698.168610	0.023326	
3698.170168	0.026585	
3698.171871	0.033880	
3698.173441	0.028696	
3698.175143	0.026094	
3698.176689	0.022517	
3698.178422	0.038106	
3698.179910	0.024732	
3698.181658	0.038283	
3698.183144	0.040676	
3698.184917	0.038312	
3698.186401	0.024063	
3698.188163	0.027729	
3698.189648	0.026215	
3698.191405	0.014440	
3698.192909	0.022758	
3698.194657	0.032285	
3698.196176	0.023524	
3698.197901	0.030195	
3698.199422	0.031955	
3698.201123	0.031500	
3698.202662	0.024829	
3698.204349	0.021820	
3698.205908	0.014206	
3698.207588	0.006581	
3698.209167	0.007515	
3698.210827	0.014577	
3698.212399	0.007676	
3698.214032	0.013380	
3698.215627	0.017997	
3698.217154	0.023556	
3698.218785	0.012651	
3698.220267	0.014806	
3698.221852	0.006923	
3698.223327	0.010955	
3698.224958	-0.004099	
3698.226442	-0.005396	
3698.228069	0.009211	
3698.229561	-0.000102	
3698.231123	0.001980	
3698.232672	0.012522	
3698.234198	0.007193	
3698.235839	-0.003772	
3698.237326	-0.002697	
3698.238956	-0.001246	
3698.240473	-0.011156	
3698.242109	-0.016333	
3698.243591	-0.005855	
3698.245253	0.001577	
3698.246728	-0.002399	
3698.248412	0.003088	
3698.249901	0.012410	
3698.251621	0.002846	
3698.253112	-0.004352	
3698.254820	-0.001154	
3698.256320	-0.007366	
3698.257989	-0.014371	
3698.259496	-0.005988	
3698.261155	0.003914	
3698.262684	0.002629	
3698.264302	0.002395	
3698.265861	0.010959	
3698.267452	0.011431	
3698.269052	0.000228	
3698.270710	-0.002697	
3698.272324	0.000107	
3698.273940	-0.006624	
3698.275572	-0.008421	
3698.277189	0.000852	
3698.278822	0.002202	
3698.280422	0.001287	
3698.282060	0.012679	
3698.283659	0.012953	
3698.285353	0.006492	
3698.286916	0.000103	
3698.288624	0.004006	
3698.290166	-0.007120	
3698.291863	-0.008594	
3698.293422	0.001698	
3698.295121	0.005223	
3698.296650	0.003994	
3698.298376	0.011455	
3698.299860	0.016454	
3698.301641	0.008659	
3698.303121	0.002983	
3698.304892	0.003128	
3698.306373	0.000699	
3698.308148	-0.003381	
3698.309627	-0.004276	
3698.311393	0.008426	
3698.312898	0.004635	
3698.314653	0.008796	
3698.316171	0.013634	
3698.317890	0.012043	
3698.319411	0.001485	
3698.321125	0.000361	
3698.322656	-0.000469	
3698.324350	-0.006423	
3698.325913	-0.008775	
3698.327588	0.003575	
3698.329159	0.000063	
3698.330824	-0.000155	
3698.332402	0.005851	
3698.334049	0.009658	
3698.335650	-0.006302	
3698.337273	-0.006822	
3698.338898	-0.006101	
3698.340511	-0.015966	
3698.342192	-0.019861	
3698.343797	-0.008518	
3698.345458	-0.005617	
3698.347049	-0.012107	
3698.348727	-0.002298	
3698.350289	-0.003398	
3698.351982	-0.011269	
3698.353543	-0.013730	
3698.355240	-0.019350	
3698.356792	-0.027455	
3698.358487	-0.034162	
3698.360022	-0.022629	
3698.361732	-0.017118	
3698.363228	-0.022991	
3698.365001	-0.011418	
3698.366480	-0.012554	
3698.368265	-0.019269	
3698.369749	-0.028208	
3698.371531	-0.023724	
3698.373012	-0.032075	
3698.374784	-0.040865	
3698.376278	-0.034271	
3698.378047	-0.024687	
3698.379536	-0.027100	
3698.381288	-0.023902	
3698.382797	-0.012767	
3698.384523	-0.016051	
3698.386053	-0.030069	
3698.387758	-0.028881	
3698.389294	-0.030887	
3698.390986	-0.039826	
3698.392554	-0.034238	
3698.394241	-0.020828	
3698.395839	-0.022363	
3698.397333	-0.023414	
3698.398954	-0.008103	
3698.400482	-0.011076	
3698.402137	-0.023148	
3698.403618	-0.022012	
3698.405263	-0.018818	
3698.406737	-0.028820	
3698.408379	-0.036236	
3698.409861	-0.019660	
3698.411505	-0.019056	
3698.412987	-0.015897	
3698.414600	-0.011873	
3698.416151	-0.004376	
3698.417711	-0.003369	
3698.419282	-0.014649	
3698.420769	-0.011104	
3698.422405	-0.014407	
3698.423975	-0.019108	
3698.425595	-0.019902	
3698.427126	-0.011249	
3698.428799	-0.002503	
3698.430276	-0.005363	
3698.431983	0.003801	
3698.433465	0.012949	
3698.435178	0.000196	
3698.436669	-0.003369	
3698.438390	-0.000441	
3698.439878	-0.007067	
3698.441592	-0.008320	
3698.443075	-0.001645	
3698.444787	0.008647	
3698.446267	0.009127	
3698.448004	0.015568	
3698.449508	0.022082	
3698.451253	0.021232	
3698.452768	0.018927	
3698.454507	0.014879	
3698.456037	0.014287	
3698.457756	0.008281	
3698.459306	0.013340	
3698.461014	0.020490	
3698.462565	0.029413	
3698.464236	0.020817	
3698.465800	0.038312	
3698.467441	0.033796	
3698.469034	0.018686	
3698.470681	0.019435	
3698.472283	0.016901	
3698.473912	0.014891	
3698.475518	0.015592	
3698.477144	0.017638	
3698.478843	0.026356	
3698.480424	0.021735	
3698.482087	0.028684	
3698.483664	0.039452	
3698.485351	0.033594	
3698.486932	0.022021	
3698.488601	0.026948	
3698.490172	0.020035	
3698.491882	0.018484	
3698.493423	0.033377	
3698.495137	0.038501	
3698.496672	0.037309	
3698.498397	0.045708	
3698.499898	0.048395	
3698.501656	0.038553	
3698.503151	0.041643	
3698.504925	0.047895	
3698.506403	0.045595	
3698.508186	0.041220	
3698.509668	0.052560	
3698.511467	0.057039	
3698.512947	0.071167	
3698.514708	0.078297	
3698.516206	0.086257	
3698.517944	0.086382	
3698.519458	0.085483	
3698.521191	0.089991	
3698.522719	0.096211	
3698.524428	0.089604	
3698.525965	0.104992	
3698.527672	0.121803	
3698.529213	0.129996	
3698.530906	0.141332	
3698.532478	0.160140	
3698.534155	0.168322	
3698.535737	0.163774	
3698.537396	0.177603	
3698.538988	0.194486	
3698.540622	0.195501	
3698.542225	0.202615	
3698.543853	0.232114	
3698.545496	0.242733	
3698.547103	0.263100	
3698.548790	0.277650	
3698.550400	0.300684	
3698.552050	0.303859	
3698.553660	0.326139	
3698.555335	0.339384	
3698.556890	0.352996	
3698.558591	0.369041	
3698.560147	0.394814	
3698.561849	0.420527	
3698.563407	0.440000	
3698.565092	0.466256	
3698.566628	0.495965	
3698.568350	0.513698	
3698.569844	0.532715	
3698.571643	0.566445	
3698.573131	0.585579	
3698.574669	0.600262	
3698.576182	0.637460	
3698.577771	0.671773	
3698.579312	0.703202	
3698.580835	0.726570	
3698.582481	0.777742	
3698.583962	0.800587	
3698.585601	0.829820	
3698.587117	0.855908	
3698.588792	0.889037	
3698.590272	0.917134	
3698.591923	0.955476	
3698.593394	0.998248	
3698.595047	1.045645	
3698.596529	1.080269	
3698.598178	1.119879	
3698.599680	1.169686	
3698.601296	1.195032	
3698.602825	1.227705	
3698.604476	1.270293	
3698.606019	1.310943	
3698.607650	1.346468	
3698.609209	1.388214	
3698.610815	1.454556	
3698.612399	1.506348	
3698.613972	1.544714	
3698.615582	1.592506	
3698.617123	1.615170	
3698.618812	1.618408	
3698.620282	1.618477	
3698.622011	1.618444	
3698.623487	1.618424	
3698.625217	1.618469	
3698.626770	1.618513	
3698.628492	1.618396	
3698.630047	1.618565	
3698.631767	1.618445	
3698.633302	1.618521	
3698.635059	1.618529	
3698.636567	1.618505	
3698.638330	1.618299	
3698.639813	1.618517	
3698.641585	1.618441	
3698.643080	1.618521	
3698.644854	1.618537	
3698.646347	1.618529	
3698.648151	1.618553	
3698.649629	1.618384	
3698.651419	1.618545	
3698.652904	1.618444	
3698.654640	1.618497	
3698.656142	1.618541	
3698.657871	1.618525	
3698.659396	1.618501	
3698.661160	1.618485	
3698.662683	1.618537	
3698.664409	1.618561	
3698.665952	1.618493	
3698.667649	1.618505	
3698.669194	1.618521	
3698.670900	1.618598	
3698.672462	1.618505	
3698.674123	1.618634	
3698.675716	1.618517	
3698.677373	1.618586	
3698.678974	1.618517	
3698.680642	1.618497	
3698.682234	1.618565	
3698.683864	1.618569	
3698.685487	1.618449	
3698.687100	1.618569	
3698.688769	1.618404	
3698.690376	1.618585	
3698.692017	1.618469	
3698.693614	1.618557	
3698.695282	1.618493	
3698.696861	1.618432	
3698.698550	1.618513	
3698.700102	1.618497	
3698.701813	1.618525	
3698.703372	1.618634	
3698.705075	1.618533	
3698.706595	1.618465	
3698.708347	1.618473	
3698.709845	1.618553	
3698.711629	1.618517	
3698.713117	1.618493	
3698.714886	1.618573	
3698.716367	1.618473	
3698.718130	1.618561	
3698.719613	1.618456	
3698.721394	1.618497	
3698.722894	1.618533	
3698.724664	1.618634	
3698.726160	1.618610	
3698.727901	1.618517	
3698.729411	1.618569	
3698.731127	1.618549	
3698.732653	1.618517	
3698.734351	1.618465	
3698.735890	1.618529	
3698.737594	1.618525	
3698.739164	1.618505	
3698.740850	1.618690	
3698.742429	1.618473	
3698.744113	1.618598	
3698.745706	1.618489	
3698.747359	1.618581	
3698.748971	1.618638	
3698.750478	1.618517	
3698.752075	1.618464	
3698.753561	1.618436	
3698.755204	1.618489	
3698.756684	1.618400	
3698.758316	1.618456	
3698.759799	1.618453	
3698.761436	1.618505	
3698.762938	1.618521	
3698.764523	1.618448	
3698.766082	1.618453	
3698.767630	1.618445	
3698.769218	1.618465	
3698.770709	1.618505	
3698.772385	1.618457	
3698.773874	1.618541	
3698.775516	1.618529	
3698.777033	1.618573	
3698.778713	1.618509	
3698.780198	1.616261	
3698.781912	1.399807	
3698.783394	1.177444	
3698.785123	0.932925	
3698.786607	0.701840	
3698.788316	0.458220	
3698.789795	0.239699	
3698.791493	-0.005001	
3698.792971	-0.229177	
3698.794658	-0.456197	
3698.796157	-0.670939	
3698.797811	-0.909093	
3698.799352	-1.131259	
3698.801067	-1.368978	
3698.802609	-1.586064	
3698.804312	-1.639556	
3698.805866	-1.639713	
3698.807544	-1.639580	
3698.809108	-1.639721	
3698.810793	-1.639625	
3698.812381	-1.639709	
3698.814023	-1.639588	
3698.815635	-1.639721	
3698.817288	-1.639625	
3698.818897	-1.639725	
3698.820534	-1.639685	
3698.822149	-1.639705	
3698.823772	-1.639568	
3698.825435	-1.639665	
3698.827021	-1.639669	
3698.828698	-1.639669	
3698.830273	-1.639633	
3698.831957	-1.639725	
3698.833535	-1.639649	
3698.835215	-1.639742	
3698.836774	-1.639717	
3698.838469	-1.639782	
3698.840023	-1.639774	
3698.841737	-1.639733	
3698.843256	-1.639697	
3698.845011	-1.639693	
3698.846508	-1.639737	
3698.848273	-1.639826	
3698.849765	-1.639750	
3698.851566	-1.639742	
3698.853050	-1.639729	
3698.854828	-1.639794	
3698.856308	-1.639770	
3698.858092	-1.639746	
3698.859586	-1.639830	
3698.861357	-1.639758	
3698.862857	-1.639774	
3698.864591	-1.639822	
3698.866101	-1.639766	
3698.867830	-1.639713	
3698.869353	-1.639822	
3698.871079	-1.639725	
3698.872619	-1.639790	
3698.874334	-1.639750	
3698.875886	-1.639786	
3698.877579	-1.639705	
3698.879149	-1.639794	
3698.880821	-1.639685	
3698.882396	-1.639689	
3698.884040	-1.639588	
3698.885620	-1.639810	
3698.887249	-1.639641	
3698.888851	-1.639782	
3698.890458	-1.639697	
3698.892134	-1.639734	
3698.893713	-1.639689	
3698.895383	-1.639746	
3698.896973	-1.639605	
3698.898624	-1.639778	
3698.900209	-1.639637	
3698.901917	-1.639758	
3698.903467	-1.639588	
3698.905187	-1.639742	
3698.906724	-1.639685	
3698.908437	-1.639669	
3698.909975	-1.639609	
3698.911685	-1.639734	
3698.913197	-1.639657	
3698.914972	-1.639637	
3698.916452	-1.639709	
3698.918231	-1.639605	
3698.919719	-1.639717	
3698.921502	-1.639782	
3698.922982	-1.639701	
3698.924766	-1.639709	
3698.926284	-1.639738	
3698.927774	-1.639722	
3698.929347	-1.639737	
3698.930875	-1.639621	
3698.932489	-1.639681	
3698.933981	-1.639653	
3698.935653	-1.639685	
3698.937156	-1.639685	
3698.938808	-1.639584	
3698.940306	-1.639665	
3698.941958	-1.639758	
3698.943452	-1.639585	
3698.945085	-1.639633	
3698.946582	-1.639685	
3698.948203	-1.639633	
3698.949706	-1.639669	
3698.951327	-1.639633	
3698.952825	-1.639685	
3698.954409	-1.639524	
3698.955941	-1.639617	
3698.957570	-1.639665	
3698.959141	-1.639766	
3698.960736	-1.639556	
3698.962340	-1.639705	
3698.963913	-1.639584	
3698.965534	-1.639750	
3698.967060	-1.636777	
3698.968767	-1.572203	
3698.970251	-1.505087	
3698.971972	-1.439615	
3698.973455	-1.391114	
3698.975167	-1.339906	
3698.976644	-1.279859	
3698.978361	-1.223987	
3698.979874	-1.175059	
3698.981647	-1.108914	
3698.983130	-1.059039	
3698.984917	-1.015078	
3698.986404	-0.977893	
3698.988182	-0.920046	
3698.989672	-0.883614	
3698.991450	-0.846610	
3698.992947	-0.803321	
3698.994745	-0.751968	
3698.996224	-0.717832	
3698.998008	-0.673335	
3698.999503	-0.631944	
3699.001253	-0.603452	
3699.002760	-0.578033	
3699.004469	-0.545585	
3699.005998	-0.516106	
3699.007720	-0.496420	
3699.009260	-0.472278	
3699.010977	-0.431543	
3699.012526	-0.415511	
3699.014209	-0.390837	
3699.015769	-0.357982	
3699.017433	-0.337442	
3699.019012	-0.325502	
3699.020669	-0.306339	
3699.022270	-0.289408	
3699.023917	-0.280780	
3699.025539	-0.267837	
3699.027165	-0.237572	
3699.028777	-0.223163	
3699.030388	-0.205845	
3699.032067	-0.186030	
3699.033655	-0.169518	
3699.035343	-0.169634	
3699.036948	-0.154939	
3699.038605	-0.142359	
3699.040182	-0.142359	
3699.041865	-0.135027	
3699.043431	-0.117580	
3699.045129	-0.107417	
3699.046667	-0.103880	
3699.048378	-0.088802	
3699.049892	-0.076479	
3699.051629	-0.075670	
3699.053106	-0.075090	
3699.054873	-0.072193	
3699.056359	-0.071037	
3699.058137	-0.077664	
3699.059615	-0.066340	
3699.061400	-0.050138	
3699.062877	-0.043959	
3699.064639	-0.039995	
3699.066144	-0.034432	
3699.067884	-0.036929	
3699.069396	-0.044744	
3699.071155	-0.041296	
3699.072687	-0.039689	
3699.074407	-0.042118	
3699.075934	-0.038484	
3699.077651	-0.029731	
3699.079190	-0.027229	
3699.080886	-0.024421	
3699.082444	-0.016611	
3699.084133	-0.014596	
3699.085726	-0.025513	
3699.087409	-0.024647	
3699.088981	-0.017424	
3699.090625	-0.029187	
3699.092206	-0.029598	
3699.093847	-0.021871	
3699.095462	-0.015978	
3699.097058	-0.012389	
3699.098743	-0.003176	
3699.100316	-0.004747	
3699.101992	-0.008441	
3699.103470	-0.010367	
3699.105015	-0.011768	
3699.106521	-0.010693	
3699.108072	-0.014463	
3699.109572	-0.007676	
3699.111153	0.000268	
3699.112698	-0.005029	
3699.114232	0.005569	
3699.115826	0.011145	
3699.117321	0.013151	
3699.118998	0.009916	
3699.120491	0.009199	
3699.122126	0.010077	
3699.123656	0.003487	
3699.125285	0.006895	
3699.126771	0.015354	
3699.128403	0.018279	
3699.129898	0.023568	
3699.131539	0.036318	
3699.133039	0.045957	
3699.134736	0.038996	
3699.136215	0.031407	
3699.137894	0.037868	
3699.139399	0.035597	
3699.141043	0.025357	
3699.142577	0.034533	
3699.144196	0.039274	
3699.145773	0.040551	
3699.147350	0.045144	
3699.148969	0.050715	
3699.150523	0.047963	
3699.152150	0.044080	
3699.153648	0.047730	
3699.155370	0.046473	
3699.156961	0.038859	
3699.158606	0.039983	
3699.160193	0.042570	
3699.161878	0.051702	
3699.163441	0.054953	
3699.165163	0.059585	
3699.166713	0.060218	
3699.168423	0.055762	
3699.169978	0.057474	
3699.171687	0.052499	
3699.173201	0.044825	
3699.174967	0.040487	
3699.176445	0.045264	
