time (s)	magX	magY	magZ
2761.748872	-382.353607	218.446503	403.728241
2761.752206	-386.035645	220.550552	415.592651
2761.755537	-388.548798	222.479248	429.327271
2761.758874	-391.354187	224.174164	442.711304
2761.762206	-395.562225	225.810638	457.439514
2761.765536	-398.016937	227.388657	471.466400
2761.768873	-400.822327	228.323792	487.363525
2761.772199	-403.569275	229.784912	502.617767
2761.775535	-406.316193	230.427811	518.631836
2761.778865	-408.244904	231.772064	535.113403
2761.782218	-409.939819	232.999420	551.068970
2761.785537	-410.524292	232.882523	568.076599
2761.788870	-412.043823	234.285202	585.259521
2761.792202	-412.745209	233.992981	604.371155
2761.795534	-412.043823	234.168335	623.249023
2761.798872	-411.868469	233.992981	641.776184
2761.803555	-410.173553	233.992981	680.466980
2761.806464	-408.069580	233.583878	700.104614
2761.809702	-405.673279	233.291641	720.618958
2761.813060	-402.458832	232.882523	740.607300
2761.816405	-397.549408	231.830490	762.056702
2761.819775	-393.867371	230.544708	781.460571
2761.823144	-388.665680	229.142014	803.845154
2761.826482	-382.295135	228.031555	824.008789
2761.829324	-375.983063	225.518417	846.042725
2761.832626	-368.443604	223.648163	866.089417
2761.835953	-360.378143	221.135010	887.480408
2761.839297	-351.260681	217.920517	908.812988
2761.842620	-341.792511	214.647568	929.385742
2761.845953	-331.973694	210.439514	949.549438
2761.849290	-321.336670	206.640564	971.524902
2761.852624	-309.004669	202.374054	991.454773
2761.855526	-296.263580	197.523087	1010.800110
2761.858861	-284.399170	191.094101	1030.437744
2761.862214	-270.547638	184.840439	1049.783081
2761.865522	-256.929871	178.645233	1065.972534
2761.868861	-242.610779	171.748672	1086.019287
2761.872198	-227.239624	164.384567	1102.325562
2761.875536	-213.154297	156.260666	1118.923950
2761.878854	-196.789612	147.902985	1134.119751
2761.882192	-180.950897	139.369965	1149.841553
2761.885527	-164.060211	129.960266	1164.277588
2761.888859	-146.409698	120.609001	1179.005859
2761.892192	-128.466980	110.322609	1190.461060
2761.895528	-110.115135	100.328461	1201.624146
2761.898854	-92.055527	89.516075	1211.618286
2761.902197	-72.885445	79.405029	1222.547607
2761.905527	-54.708939	68.534187	1230.554565
2761.908859	-34.077732	57.312683	1236.691406
2761.912209	-15.433662	46.091179	1242.360596
2761.915530	4.671537	34.811218	1248.322021
2761.918854	25.711866	23.998831	1252.822266
2761.922188	45.524841	13.069551	1254.049683
2761.925516	65.922272	1.380479	1255.276978
2761.928854	86.553474	-9.957919	1255.218506
2761.932187	107.243134	-20.185858	1254.049683
2761.935525	128.108124	-29.887785	1251.478027
2761.938848	148.505554	-39.823494	1247.153076
2761.942188	168.669189	-49.992989	1239.672119
2761.945527	188.423737	-59.110466	1234.295044
2761.948850	208.645813	-68.169495	1225.060791
2761.952194	228.049683	-76.936302	1214.482178
2761.955539	246.752197	-85.118645	1204.897095
2761.958849	264.928711	-93.300995	1192.331299
2761.962180	283.046753	-100.840446	1178.129150
2761.965521	299.352997	-107.620102	1165.563354
2761.968855	316.535950	-114.575104	1150.192261
2761.972181	332.199310	-121.062538	1133.885986
2761.975517	347.395081	-127.023972	1116.586182
2761.980156	374.922852	-138.888367	1080.174683
2761.983050	387.021027	-144.206894	1060.887695
2761.986398	399.411469	-149.817657	1041.133179
2761.989801	410.048492	-153.908829	1021.612488
2761.993111	418.990662	-159.052017	1000.981323
2761.996360	428.926361	-163.552307	980.057861
2761.999728	435.998230	-167.468155	960.537109
2762.003033	443.479248	-170.916428	939.087769
2762.005939	450.083588	-175.358261	918.281128
2762.009265	455.694336	-178.631210	896.773315
2762.012610	460.720642	-181.904160	876.492737
2762.015951	465.279388	-185.819992	854.049744
2762.019289	468.084747	-188.683807	834.236694
2762.022633	471.883667	-191.138519	815.066711
2762.025933	473.461731	-193.359436	793.500366
2762.028849	475.331970	-196.281708	772.986023
2762.032184	476.734619	-198.561081	751.594971
2762.035547	477.085358	-199.613098	732.015808
2762.038846	477.669769	-200.957336	713.079529
2762.042195	477.319092	-202.067780	693.617249
2762.045512	476.676208	-203.528931	673.102844
2762.048840	475.857971	-203.938034	653.523682
2762.052174	474.455292	-204.405624	635.464050
2762.055513	473.344849	-204.697830	615.125122
2762.058838	470.714813	-204.171829	596.422607
2762.062176	468.786102	-203.178268	577.836975
2762.065508	465.746918	-202.710709	560.537170
2762.068844	463.175323	-202.360016	542.302185
2762.072173	460.019287	-201.366455	524.885498
2762.075506	457.506134	-200.723557	508.579193
2762.078840	453.414948	-198.970200	491.513153
2762.082174	449.499115	-197.625946	474.037964
2762.085564	446.226166	-195.580368	458.023956
2762.088845	442.719452	-194.353012	442.126831
2762.092169	438.511414	-192.424316	427.690826
2762.095505	433.835785	-190.437164	412.962616
2762.098845	429.861481	-187.865570	398.935699
2762.102169	425.185852	-185.995331	385.727051
2762.105505	420.393341	-183.657516	372.576843
2762.108840	416.009918	-181.436600	359.777313
2762.112171	411.743408	-178.865005	347.036224
2762.115497	405.957336	-177.170074	335.522491
2762.118830	400.814148	-175.416718	324.184082
2762.122166	396.898315	-173.312683	313.547058
2762.125500	391.638214	-170.448853	302.559326
2762.128859	386.728790	-168.987732	292.682068
2762.132170	382.462311	-166.766800	282.337219
2762.135498	376.384003	-164.545883	273.570435
2762.138829	371.591461	-163.260086	264.803619
2762.142168	366.214478	-161.448288	256.212158
2762.145501	361.363525	-159.753372	248.263580
2762.148834	356.687897	-158.467560	240.315018
2762.152164	352.187592	-156.772644	232.892456
2762.156422	341.901215	-154.259491	218.924011
2762.159713	338.102264	-152.272369	211.676804
2762.163019	333.601990	-150.869675	204.663361
2762.166400	328.692566	-148.999405	197.357697
2762.169705	323.549377	-147.421387	191.630035
2762.173054	319.282867	-146.077148	185.843948
2762.176445	314.315033	-143.973114	181.051437
2762.179764	309.873169	-142.862656	174.388657
2762.182628	304.963745	-141.576859	168.836349
2762.185935	301.106384	-140.115723	163.693161
2762.189248	297.482758	-138.479248	158.257751
2762.192588	292.807129	-136.375214	154.108124
2762.195919	289.300415	-135.089432	149.257156
2762.199246	285.150787	-133.102280	144.464630
2762.202589	281.351837	-131.933380	140.139679
2762.205495	277.786682	-130.413788	135.230270
2762.208845	274.279938	-128.894211	131.840439
2762.212164	271.065460	-126.614853	127.866158
2762.215490	266.565155	-125.212158	123.950325
2762.218824	263.350677	-123.108124	118.982468
2762.222154	260.369965	-121.763878	115.709534
2762.225492	257.447693	-120.068962	112.144363
2762.228844	253.648743	-118.490944	108.754524
2762.232158	251.194061	-116.796021	106.066048
2762.235494	248.096436	-115.744011	101.857979
2762.238826	245.407928	-113.464645	99.286385
2762.242151	242.427216	-112.295731	95.954994
2762.245485	239.154297	-110.600822	93.500290
2762.248823	237.459381	-109.373466	90.694916
2762.252194	234.361755	-108.263008	87.714203
2762.255483	231.731750	-107.269440	85.668617
2762.258826	229.160156	-105.808304	84.324371
2762.262152	227.348328	-104.873177	82.395668
2762.265486	224.542938	-103.879601	80.116302
2762.268819	221.971375	-102.418465	77.369370
2762.272157	219.691986	-101.892464	75.323792
2762.275485	217.880188	-101.132675	73.745758
2762.278816	215.367035	-100.255997	72.693748
2762.282152	213.613678	-99.613091	71.232613
2762.285483	211.451202	-98.677963	69.187027
2762.288824	209.347168	-98.502632	67.433662
2762.292169	207.535370	-97.509056	66.615433
2762.295523	205.548218	-97.450623	64.686737
2762.298817	203.502625	-96.866165	63.693157
2762.302154	201.690826	-95.814148	63.225597
2762.305481	200.521912	-95.521919	61.121563
2762.308813	198.067200	-94.937462	59.426651
2762.312144	197.073639	-94.353012	58.900642
2762.315483	196.021637	-93.593224	57.673290
2762.318812	193.742249	-93.125656	56.153706
2762.322150	192.339569	-92.365868	55.335472
2762.325484	190.410889	-92.599648	54.751019
2762.330154	188.482178	-90.846291	52.705437
2762.333063	187.254822	-90.554062	51.828751
2762.336430	185.676788	-89.794273	51.711861
2762.339775	184.624786	-89.618942	50.133839
2762.343065	183.689667	-88.976036	49.315601
2762.346340	182.579193	-88.333145	48.380478
2762.349667	181.351837	-87.281128	47.737579
2762.352993	180.066040	-87.047348	46.393337
2762.356351	179.656921	-86.872009	46.159554
2762.359238	178.488007	-86.112221	45.575100
2762.362598	177.786682	-85.293976	45.224430
2762.365923	177.085327	-84.358856	44.523087
2762.369270	176.442444	-84.183517	43.529514
2762.372596	175.273529	-84.008179	42.009933
2762.375917	174.747528	-83.540619	42.419052
2762.378816	174.046173	-82.956169	41.600815
2762.382181	173.111053	-82.254822	41.250145
2762.385476	172.409698	-82.137932	40.957916
2762.388814	172.234375	-81.553474	40.315018
2762.392141	172.351257	-81.495033	39.789009
2762.395477	171.883698	-81.962601	39.321449
2762.398804	171.416138	-82.137932	39.204556
2762.402135	170.305664	-81.787262	38.561657
2762.405472	170.539459	-81.611923	39.263004
2762.408809	170.071899	-81.553474	38.736996
2762.412140	169.896545	-81.261253	39.029221
2762.415471	169.487427	-81.436584	38.152542
2762.418805	168.669189	-81.202805	39.204556
2762.422143	168.552307	-81.611923	38.620106
2762.425494	169.019867	-81.845711	38.386322
2762.428803	168.669189	-81.495033	38.970776
2762.432150	168.435425	-82.196381	38.561657
2762.435469	169.078308	-82.430161	39.379894
2762.438801	168.669189	-82.254822	39.672119
2762.442140	168.961426	-82.196381	40.081238
2762.445473	169.136749	-83.014618	40.022793
2762.448806	168.961426	-83.131508	40.198128
2762.452131	168.961426	-83.774399	39.905903
2762.455468	169.896545	-83.949738	39.847458
2762.458800	170.597900	-83.891289	40.373463
2762.462138	170.071899	-84.125076	40.724136
2762.465468	170.480988	-84.475746	41.191700
2762.468836	170.130341	-84.534195	41.425480
2762.472139	171.708344	-85.060196	41.308590
2762.475467	172.175934	-84.651085	41.425480
2762.478793	172.468140	-85.469315	41.893044
2762.482134	173.169495	-85.001755	42.068378
2762.485464	173.403290	-85.352425	41.776154
2762.488796	173.987732	-85.527763	42.302158
2762.492137	174.689056	-85.235535	42.711277
2762.495459	175.331970	-85.703102	42.652832
2762.498857	175.916412	-86.229111	43.412624
2762.503404	177.260681	-86.404442	43.997078
2762.506777	178.488007	-86.404442	44.464642
2762.509708	179.890717	-86.872009	45.808884
2762.513040	180.533600	-87.222679	45.925774
2762.516412	181.351837	-87.514908	46.568672
2762.519733	182.403870	-88.274696	47.270016
2762.523057	183.631195	-88.859146	47.328461
2762.526317	184.800110	-88.859146	48.497368
2762.529651	185.735260	-89.852722	49.724720
2762.532558	186.728821	-90.495621	49.841610
2762.535903	188.189941	-90.963181	51.828751
2762.539212	189.475739	-92.190536	52.120979
2762.542557	190.761536	-93.885445	53.582111
2762.545877	192.105774	-94.411461	54.517239
2762.549238	192.865570	-94.236115	55.978374
2762.552575	194.794281	-95.521919	56.971947
2762.555489	196.664520	-96.340149	58.140854
2762.558791	198.008759	-97.567505	60.127995
2762.562125	199.586792	-98.151962	61.121563
2762.565453	201.573944	-99.846870	62.874924
2762.568787	203.093506	-100.548218	64.160721
2762.572119	205.139099	-101.600235	66.323204
2762.575457	206.541779	-102.418465	67.842781
2762.578788	209.171844	-103.821152	69.303917
2762.582123	210.340729	-105.282288	71.115723
2762.585457	212.795441	-105.866745	72.635300
2762.588786	214.841034	-107.620102	74.447105
2762.592123	216.886627	-108.730576	77.077148
2762.595459	219.458221	-109.899483	78.479836
2762.598793	221.270020	-110.308594	81.109871
2762.602120	223.257172	-112.061951	83.272354
2762.605456	225.536530	-113.055519	85.025711
2762.608785	228.049683	-114.282875	87.597305
2762.612113	230.971954	-115.627113	89.409119
2762.615452	233.894196	-116.620689	91.454704
2762.618815	236.232025	-118.081825	92.974281
2762.622118	239.037384	-118.900055	95.954994
2762.625448	241.550568	-120.185860	99.227936
2762.628817	244.180603	-120.653419	102.033310
2762.632119	246.576843	-122.582123	104.721794
2762.635454	249.674469	-123.751022	107.585617
2762.638788	252.772064	-124.919937	110.975456
2762.642129	255.869659	-126.264175	113.605499
2762.645449	259.084167	-127.666855	117.521332
2762.648786	261.714203	-128.777313	120.969604
2762.652118	264.870270	-130.472244	125.353012
2762.655441	268.318542	-131.933380	128.509064
2762.658778	271.065460	-133.043839	132.600235
2762.662119	274.689087	-135.030975	136.399185
2762.665441	278.195770	-136.959686	140.957916
2762.668778	281.819397	-138.888367	145.984222
2762.672117	286.202820	-141.050842	150.718292
2762.675443	289.241943	-143.037994	155.160141
2762.678784	293.333130	-144.966690	160.011093
2762.683048	300.521912	-148.940979	171.583282
2762.686295	304.145508	-151.278793	177.427811
2762.689625	308.470490	-153.908829	183.973694
2762.692966	311.918762	-156.012863	191.162476
2762.696314	316.009918	-159.110474	196.831680
2762.699648	320.802429	-161.272934	204.254227
2762.703066	324.601410	-163.143188	210.332550
2762.706385	328.400330	-165.890121	217.404449
2762.709260	332.666870	-167.468155	226.054352
2762.712535	337.108704	-170.916428	232.950912
2762.715884	340.790771	-172.962021	240.607254
2762.719199	345.291046	-176.293396	249.081818
2762.722540	350.609589	-178.397430	257.673309
2762.725862	354.700745	-180.969025	265.738739
2762.729205	358.499695	-183.715958	274.856232
2762.732107	363.759766	-185.703094	284.149048
2762.735439	368.376953	-187.105789	293.850952
2762.738776	372.877258	-190.144958	304.137329
2762.742106	377.085327	-192.132080	314.482178
2762.745453	382.520752	-194.586792	324.651642
2762.748770	386.962585	-196.807724	335.756287
2762.752147	391.755096	-198.911743	346.802460
2762.755436	396.489197	-200.080658	358.959076
2762.758775	400.405029	-202.243149	371.758606
2762.762104	404.846863	-204.405624	383.739899
2762.765439	409.873169	-206.568085	396.013428
2762.768769	413.964325	-208.321457	408.462311
2762.772102	418.347717	-210.133255	422.839874
2762.775433	422.088226	-211.360611	436.457611
2762.778774	425.945648	-213.815308	451.361206
2762.782101	430.036835	-215.042664	465.504974
2762.785434	432.900665	-217.146683	480.992981
2762.788786	437.459351	-218.257172	496.656342
2762.792099	441.258331	-220.711853	513.196350
2762.795435	443.596130	-222.348343	529.444214
2762.798765	446.050842	-224.160156	546.977844
2762.802101	449.499115	-225.738174	563.926941
2762.805432	450.784912	-227.433090	581.460571
2762.808770	453.005829	-229.127991	600.630615
2762.812098	454.350098	-230.881363	618.924072
2762.815430	455.168335	-231.933380	638.795471
2762.818772	455.986542	-233.452942	657.088867
2762.822103	455.811218	-234.855637	678.362976
2762.825471	456.278809	-236.024551	698.409729
2762.828767	455.694336	-237.544144	719.450073
2762.832119	453.356506	-237.894806	739.964355
2762.835431	452.129150	-238.771469	761.939819
2762.838761	449.966675	-238.888367	783.447693
2762.842099	447.745758	-239.297485	804.838745
2762.845430	444.063690	-239.355927	826.638855
2762.848760	441.024536	-238.362366	848.497375
2762.852093	435.530640	-237.719467	869.596191
2762.855422	430.445953	-237.135010	891.571594
2762.860106	418.815308	-233.862076	934.119873
2762.863061	411.743408	-231.699585	955.393982
2762.866380	404.613068	-229.011108	977.369385
2762.869725	396.722961	-225.621277	997.649902
2762.872947	388.832855	-221.763885	1017.872009
2762.876303	378.955566	-218.666275	1038.152466
2762.879613	369.487427	-215.159561	1056.445923
2762.882959	359.259491	-209.490356	1075.089966
2762.885847	349.382233	-205.048523	1092.506714
2762.889187	337.342499	-199.262405	1110.683105
2762.892560	324.952057	-193.827011	1126.989502
2762.895877	312.795441	-187.164230	1142.886597
2762.899269	299.937469	-181.261246	1157.497925
2762.902513	285.501434	-173.955582	1172.635254
2762.905878	271.416138	-167.117477	1185.610107
2762.908759	257.155457	-159.168900	1198.701904
2762.912125	241.609009	-151.629456	1210.040283
2762.915419	225.419647	-144.674469	1221.144897
2762.918765	208.996490	-136.725891	1230.671509
2762.922091	190.819977	-128.426651	1238.386230
2762.925421	173.695496	-120.419640	1246.276367
2762.928752	155.402100	-111.711281	1252.530151
2762.932090	136.115143	-103.236710	1258.257690
2762.935422	116.769722	-95.054359	1262.816406
2762.938752	97.307426	-86.229111	1264.803589
2762.942086	76.500885	-78.222099	1267.667358
2762.945417	56.337231	-69.338402	1268.018066
2762.948748	36.056694	-60.630043	1267.784302
2762.952090	14.373466	-51.454117	1264.628174
2762.955439	-5.907070	-42.628868	1262.991821
2762.958750	-26.304497	-33.686729	1256.854980
2762.962096	-47.344826	-24.978374	1253.056030
2762.965421	-67.976036	-16.036236	1246.276367
2762.968748	-87.672112	-6.684979	1238.503174
2762.972087	-108.069557	1.848042	1229.093506
2762.975420	-127.298073	12.192869	1219.040894
2762.978747	-146.526581	20.842781	1208.345459
2762.982081	-165.462891	30.135593	1196.130249
2762.985414	-182.996490	39.019287	1183.389160
2762.988750	-200.120972	47.552307	1169.070068
2762.992085	-216.777893	56.845116	1155.686157
2762.995418	-232.207489	65.436584	1141.483887
2762.998784	-247.520172	74.261833	1124.885376
2763.002078	-262.715973	82.911743	1107.936279
2763.005419	-275.983063	91.561653	1090.987061
2763.008746	-289.250153	99.919342	1074.563965
2763.012082	-301.932800	107.575684	1056.387451
2763.015413	-312.803619	115.407364	1039.789062
2763.018750	-324.258942	123.239044	1021.320312
2763.022078	-333.785522	130.544708	1002.091736
2763.025409	-344.247223	137.324371	984.499695
2763.028808	-353.890717	143.402695	965.329590
2763.033358	-370.138519	155.676208	925.411499
2763.036728	-377.444183	161.170074	905.130920
2763.039599	-383.873169	165.962601	887.012939
2763.042985	-390.302185	171.222687	867.784363
2763.046341	-396.497345	175.255402	849.958557
2763.049677	-401.757446	178.762131	829.911804
2763.053011	-407.251312	182.502640	811.150818
2763.056263	-411.108704	186.067795	791.571655
2763.059588	-415.082977	188.171829	772.752197
2763.062497	-418.823486	190.684982	755.393982
2763.065854	-421.804199	192.847458	737.392761
2763.069165	-424.317383	193.957916	719.099426
2763.072491	-426.538269	195.360611	700.338440
2763.075850	-428.759216	196.763290	682.454102
2763.079188	-430.921692	197.464645	665.446533
2763.082526	-431.330780	198.049103	647.679138
2763.085471	-432.324371	198.575104	630.379333
2763.088791	-432.733490	198.282883	613.547058
2763.092075	-433.084167	198.107529	596.422607
2763.095403	-432.791962	197.698425	579.590332
2763.098735	-432.032166	198.341309	563.868530
2763.102074	-430.746368	197.406189	548.497437
2763.105408	-429.869659	197.113968	532.074280
2763.108737	-427.999420	196.704849	518.222656
2763.112067	-425.953827	195.535934	503.143768
2763.115402	-424.551147	194.893036	489.233765
2763.118732	-421.687317	193.899475	475.031555
2763.122065	-419.115753	193.665695	461.589142
2763.125401	-416.076569	192.789017	448.322052
2763.128738	-413.388062	191.503204	435.814758
2763.132068	-409.998230	190.392746	423.132080
2763.135409	-407.251312	189.983643	411.384583
2763.138730	-403.277039	188.697830	400.338409
2763.142063	-399.711853	187.528931	389.000000
2763.145403	-395.737610	186.418472	378.596710
2763.148732	-392.815308	185.483337	367.199890
2763.152066	-388.841003	184.489761	357.497955
2763.155395	-385.392761	183.379303	347.912933
2763.158731	-381.360016	181.684387	338.327881
2763.162088	-377.853302	180.632385	329.561066
2763.165393	-372.885437	179.872589	320.326691
2763.168733	-370.080078	178.469894	311.384583
2763.172062	-365.813568	176.891876	303.085327
