time (s)	magX	magY	magZ
3197.501960	348.096436	-175.825836	372.752197
3197.505328	351.310913	-178.222092	385.610168
3197.508627	353.590302	-181.319702	398.000580
3197.511960	355.986542	-183.073059	410.741638
3197.515294	358.558136	-184.943314	423.950317
3197.518621	360.895966	-187.807144	436.165405
3197.521952	362.064880	-190.261841	449.841644
3197.525284	364.285797	-193.184113	463.050262
3197.528627	365.337830	-194.586792	477.310944
3197.531949	366.448273	-197.158386	492.506744
3197.535292	367.091187	-199.554642	506.182953
3197.538646	368.084747	-202.009354	521.554077
3197.541960	368.143188	-203.938034	537.334290
3197.545286	368.084747	-205.925186	552.004089
3197.548652	368.260071	-207.912338	567.550598
3197.551951	367.792511	-209.957916	583.389221
3197.555296	367.441833	-211.360611	601.799561
3197.558618	365.513153	-212.471069	618.807129
3197.561951	363.467560	-213.873749	635.054993
3197.565287	361.772644	-214.224442	653.406799
3197.568616	359.084137	-215.101105	671.875549
3197.571952	355.752777	-216.153122	690.870300
3197.575286	352.830505	-216.386917	709.338989
3197.578618	348.037964	-216.094696	727.749329
3197.581951	343.303925	-216.094696	745.750427
3197.586644	331.264191	-214.808868	785.084167
3197.589560	324.309174	-214.049103	804.897156
3197.592920	316.769714	-212.763290	824.125671
3197.596142	307.944489	-211.302170	842.652893
3197.599499	299.586792	-209.022797	860.244934
3197.602800	289.300415	-206.626541	878.479858
3197.606156	278.488007	-204.814728	896.305725
3197.609487	267.617187	-201.775574	912.261292
3197.612883	255.109894	-199.379303	929.385742
3197.615748	243.070129	-196.398605	943.880249
3197.619066	229.393921	-193.768555	960.069641
3197.622380	215.776154	-189.794266	974.388672
3197.625709	201.866150	-187.047348	986.779114
3197.629060	187.021027	-182.430161	998.117493
3197.632379	171.591461	-179.098785	1008.111633
3197.635315	155.694336	-175.299835	1018.748718
3197.638609	139.680298	-170.974869	1027.866089
3197.641944	122.906494	-167.351257	1035.931641
3197.645277	106.658676	-162.792526	1043.295654
3197.648607	90.118645	-158.876694	1048.789551
3197.651946	72.701935	-153.967270	1052.997559
3197.655283	55.460552	-149.116302	1057.030396
3197.658610	38.394508	-144.557571	1060.361816
3197.661942	20.393339	-139.122147	1062.056641
3197.665273	2.918179	-134.095856	1062.991821
3197.668610	-14.615429	-128.718887	1063.459351
3197.671945	-31.623024	-123.341919	1062.173584
3197.675285	-49.565750	-116.971367	1058.842163
3197.678641	-66.807129	-110.834602	1055.452393
3197.681944	-83.990059	-104.113380	1051.127319
3197.685294	-101.523674	-98.385742	1046.627075
3197.688611	-118.472832	-91.606079	1040.373413
3197.691944	-136.123322	-84.592636	1031.957397
3197.695274	-152.312683	-76.877853	1024.067261
3197.698606	-169.144928	-70.039742	1014.540649
3197.701943	-185.568085	-62.500290	1004.312683
3197.705271	-201.173004	-55.369957	992.857422
3197.708606	-217.245453	-47.596725	981.577454
3197.711939	-231.973694	-39.765053	968.953308
3197.715274	-247.052612	-32.517822	952.705444
3197.718605	-260.436584	-24.744593	938.386292
3197.721940	-274.288147	-17.555815	923.950378
3197.725269	-287.321442	-10.425482	907.235046
3197.728608	-299.945648	-2.886031	890.636536
3197.731940	-311.342499	3.542957	873.687317
3197.735271	-322.914673	11.257744	856.212219
3197.738603	-332.616608	17.920515	837.159058
3197.741988	-342.786102	24.291058	818.982483
3197.745275	-351.845123	29.843367	801.507324
3197.748605	-359.618347	35.454117	783.506165
3197.751933	-365.638245	39.720634	764.979004
3197.755259	-372.768555	44.396255	745.399780
3197.758602	-379.022217	49.130333	727.164856
3197.761931	-383.756317	52.870834	709.748169
3197.766567	-392.406189	60.234955	674.096436
3197.769963	-395.971344	63.215660	656.153748
3197.772838	-399.244324	66.780830	640.139709
3197.776208	-402.049683	68.943314	623.716553
3197.779522	-403.744598	71.398010	607.001160
3197.782802	-406.140869	73.852715	591.220947
3197.786121	-406.140869	75.664520	574.388733
3197.789466	-406.959106	76.891876	559.017578
3197.792799	-407.426636	78.469902	543.997131
3197.795697	-406.725311	79.872589	528.859802
3197.799021	-406.608459	81.333717	514.248413
3197.802372	-405.322601	82.210403	499.695465
3197.805715	-403.861481	83.437752	485.960846
3197.809092	-402.984802	84.314438	470.881927
3197.812360	-401.406769	85.600235	457.264160
3197.815693	-399.244324	86.184685	443.061951
3197.818594	-396.205139	86.243126	430.437744
3197.821924	-393.808899	86.944481	416.761536
3197.825259	-391.354187	87.996490	404.429565
3197.828598	-388.665680	88.814728	392.039154
3197.831925	-385.392761	89.282288	379.298065
3197.835257	-381.886047	89.457626	366.089417
3197.838591	-378.613098	89.983635	354.108124
3197.841925	-374.463470	90.100525	342.594391
3197.845255	-370.839874	90.275856	331.489777
3197.848597	-366.573364	90.977203	319.450043
3197.851943	-362.599060	91.152542	308.520752
3197.855258	-358.800140	91.035652	297.942139
3197.858593	-354.124512	91.035652	288.298676
3197.861925	-350.383972	91.210983	277.486267
3197.865259	-345.240784	90.626534	267.550537
3197.868588	-340.623627	90.451195	258.549957
3197.871944	-336.006439	90.568092	249.783173
3197.875256	-331.564575	89.866745	240.782578
3197.878592	-327.239655	89.632965	232.191116
3197.881917	-322.447113	88.990059	224.359421
3197.885258	-317.128601	87.587372	216.644653
3197.888585	-313.271210	86.710693	209.689651
3197.891924	-308.712463	86.535355	202.383987
3197.895291	-304.270599	85.950905	195.195206
3197.898584	-300.354767	85.132668	189.409119
3197.901915	-295.562256	84.489769	183.272354
3197.905254	-291.295746	83.087082	177.369385
3197.908585	-288.022827	82.736404	172.518402
3197.911914	-283.580963	81.859734	166.849213
3197.915246	-280.015778	81.158386	162.115128
3197.918585	-275.398590	79.697250	157.439499
3197.921917	-272.417877	78.762123	153.289886
3197.925253	-268.385162	77.125656	148.497360
3197.928585	-265.696686	77.184097	144.639984
3197.931916	-262.073059	76.015190	140.841034
3197.935249	-258.332581	74.787842	137.217407
3197.938648	-254.533600	74.028053	133.067795
3197.943189	-248.279968	72.040909	125.879013
3197.946561	-245.240784	71.748688	122.430740
3197.949889	-241.675629	71.339561	119.566917
3197.952795	-238.168915	70.170654	116.001747
3197.956183	-236.123322	69.352425	112.904152
3197.959508	-233.084167	69.060196	109.806549
3197.962857	-229.811218	68.358849	106.767387
3197.966101	-226.830505	67.540619	103.786667
3197.969430	-223.148437	66.956161	100.630623
3197.972335	-220.635284	65.787254	97.299240
3197.975681	-217.303925	65.319695	94.786087
3197.979002	-214.556976	64.735237	92.331383
3197.982368	-211.810028	63.800117	89.233780
3197.985692	-208.946228	63.332550	86.779076
3197.989029	-205.731720	63.332550	83.097015
3197.991912	-203.393921	62.338982	80.700760
3197.995246	-200.763855	61.929863	78.772064
3197.998585	-198.133850	61.871422	77.018700
3198.001908	-195.386902	61.228523	74.388657
3198.005237	-193.633545	60.468735	72.284622
3198.008574	-190.360626	60.059616	69.829918
3198.011905	-188.081238	59.241379	67.667450
3198.015244	-185.568085	58.423141	65.914085
3198.018568	-183.347168	58.540039	64.394501
3198.021908	-181.301575	57.604912	62.933372
3198.025236	-179.606659	57.254234	61.121563
3198.028577	-177.970184	56.962006	59.485096
3198.031910	-175.164825	56.319115	58.023964
3198.035239	-174.229706	56.319115	56.621269
3198.038576	-172.593231	55.968437	55.803036
3198.041904	-170.898315	55.208649	55.452362
3198.045235	-169.787842	54.390411	54.225014
3198.048571	-168.209808	54.098190	53.406780
3198.051905	-166.807129	53.805962	51.945644
3198.055233	-164.819977	53.279953	51.127407
3198.058567	-163.767975	53.046173	50.192284
3198.061903	-162.832855	52.987724	49.783165
3198.065239	-161.780823	52.870834	48.263588
3198.068638	-160.611938	51.760376	48.088249
3198.071906	-159.092346	51.000587	47.912914
3198.075239	-158.274109	51.000587	46.919346
3198.078573	-157.397430	50.883690	46.860901
3198.081903	-155.819397	50.416130	45.575100
3198.085231	-155.118073	50.357689	44.990650
3198.088573	-153.832245	49.714790	45.049095
3198.091902	-153.130920	49.773232	45.049095
3198.095236	-152.429565	49.305672	43.938633
3198.098566	-151.845123	49.071892	43.763298
3198.101902	-150.383972	49.130333	43.003506
3198.105230	-149.331970	48.428993	42.419052
3198.108569	-148.046173	48.721214	42.068378
3198.113234	-146.000580	48.078316	40.373463
3198.116161	-145.591461	48.312096	39.964348
3198.119537	-145.065460	48.195206	38.795441
3198.122751	-144.422546	47.786095	37.509644
3198.126085	-142.961426	47.669197	36.925190
3198.129417	-142.201630	46.967857	37.392754
3198.132784	-141.091156	47.201637	36.165401
3198.136124	-140.331390	47.260086	35.171829
3198.139489	-139.688477	47.026299	35.580948
3198.142360	-138.987122	47.026299	34.587376
3198.145674	-137.993561	47.260086	34.061367
3198.149032	-137.350677	46.734077	33.593803
3198.152325	-137.000000	46.617187	33.243130
3198.155658	-136.649323	47.143188	33.360023
3198.158984	-136.707764	46.324959	33.009350
3198.162339	-136.707764	46.149620	32.483341
3198.165226	-135.597321	47.084747	32.308006
3198.168563	-135.655762	46.734077	32.132671
3198.171890	-135.538879	46.967857	32.541786
3198.175228	-134.837524	46.734077	32.834015
3198.178559	-135.246643	47.201637	33.067795
3198.181891	-134.954407	46.675629	33.184685
3198.185222	-135.246643	46.792519	32.600231
3198.188554	-135.831085	46.558739	33.535358
3198.191891	-135.889557	47.026299	33.184685
3198.195225	-136.123322	46.850967	33.476913
3198.198616	-136.298645	46.967857	34.061367
3198.201888	-136.240204	47.435417	33.886028
3198.205251	-137.175323	47.084747	34.821156
3198.208555	-136.707764	47.435417	34.528931
3198.211891	-137.175323	47.669197	34.879604
3198.215222	-137.993561	47.844536	36.340736
3198.218566	-138.694916	47.961426	36.574516
3198.221889	-138.753357	48.487434	35.990063
3198.225216	-139.162476	47.727646	35.756283
3198.228555	-139.513153	47.961426	36.516071
3198.231885	-139.045593	48.896553	36.808300
3198.235215	-140.214478	48.662773	37.451199
3198.238556	-140.448273	48.838104	37.100525
3198.241886	-140.097595	48.779663	37.217415
3198.245214	-140.974274	48.838104	37.801868
3198.248571	-140.974274	49.539452	37.568089
3198.251881	-141.266510	50.065460	36.632961
3198.255211	-141.500305	50.065460	36.866745
3198.258552	-142.084747	50.240791	38.269432
3198.261880	-142.260101	51.000587	38.386322
3198.265236	-142.435425	51.000587	38.795441
3198.268564	-143.312103	51.175919	39.204556
3198.271882	-143.954987	51.175919	39.204556
3198.275213	-144.364105	51.585037	39.263004
3198.278549	-144.831696	52.870834	39.438339
3198.281882	-146.000580	52.637054	40.607246
3198.285212	-145.942139	53.338394	40.022793
3198.288554	-147.052612	53.221504	40.256573
3198.291910	-147.637054	53.981293	40.957916
3198.296513	-149.741089	55.208649	41.834599
3198.299438	-150.383972	55.734657	42.711277
3198.302800	-151.552887	55.559319	43.587959
3198.306164	-152.078888	56.436005	44.347748
3198.309495	-153.072479	56.903564	44.990650
3198.312735	-155.059601	58.014023	46.159554
3198.316059	-156.053192	58.072472	47.270016
3198.319398	-157.748108	58.949150	48.380478
3198.322745	-159.969025	59.592049	49.841610
3198.325632	-160.904144	60.410286	49.841610
3198.328998	-163.066620	61.228523	52.120979
3198.332322	-164.586212	61.345413	54.108124
3198.335673	-166.105774	61.988312	55.803036
3198.338999	-167.450012	62.981880	57.264172
3198.342301	-169.320282	63.507889	59.075981
3198.345636	-171.132080	64.150787	59.777325
3198.348564	-173.586792	65.202805	61.998245
3198.351874	-174.872589	65.904144	63.342487
3198.355203	-176.684387	66.663940	64.745178
3198.358542	-178.613098	67.482178	67.082993
3198.361871	-181.009338	69.001755	66.907654
3198.365212	-182.587372	69.235535	68.894798
3198.368539	-184.106934	70.521332	71.174164
3198.371876	-186.620087	70.988892	71.875511
3198.375202	-188.490356	71.865578	74.037987
3198.378563	-190.594391	72.800705	76.317360
3198.381873	-192.113983	73.911163	77.310928
3198.385200	-194.334900	75.021622	78.655167
3198.388537	-196.497375	75.898300	80.350090
3198.391872	-199.127411	76.658096	82.103447
3198.395201	-200.997650	77.417877	84.382820
3198.398564	-202.400360	78.995903	85.668617
3198.401879	-204.212158	79.989479	87.714203
3198.405199	-206.316193	81.275276	90.227356
3198.408535	-209.063110	81.918175	92.389824
3198.411870	-211.342468	83.963760	95.253654
3198.415197	-213.329620	84.840439	97.240791
3198.418535	-215.784332	86.535355	100.513733
3198.421893	-218.998840	87.762711	103.377556
3198.425198	-221.278198	89.165398	105.890701
3198.428533	-224.025116	90.392746	108.754524
3198.431861	-226.538269	91.853889	111.384567
3198.435197	-229.402100	93.198128	115.884865
3198.438532	-232.265930	95.243713	118.690239
3198.441862	-236.123322	96.529510	123.190536
3198.445202	-239.337799	98.458214	128.099945
3198.448537	-242.084747	99.977791	131.840439
3198.451867	-244.948578	101.497368	136.399185
3198.455196	-248.922852	103.133835	141.776154
3198.458525	-253.072479	104.828751	147.036224
3198.461864	-256.520752	105.880768	151.887207
3198.465196	-259.676788	107.926361	156.855057
3198.468535	-263.125061	110.205727	163.108704
3198.471859	-267.040924	112.134430	168.427246
3198.475193	-270.664520	113.420219	174.914673
3198.479832	-277.970215	117.160721	188.298660
3198.482757	-281.710693	118.680305	193.266510
3198.486063	-285.684967	120.141441	200.455276
3198.489402	-289.308594	121.661011	207.293396
3198.492780	-292.756866	123.823494	214.014618
3198.496117	-296.438934	126.161308	221.904739
3198.498982	-299.361176	128.557571	227.866165
3198.502288	-302.283447	130.252487	235.054932
3198.505618	-306.608429	132.356522	242.360596
3198.508974	-309.998260	134.168320	250.133835
3198.512291	-313.446533	136.447693	258.374634
3198.515616	-316.485687	138.785492	265.621857
3198.518945	-319.583282	140.480423	274.037994
3198.521856	-322.680878	142.759796	282.629456
3198.525190	-326.421387	144.688477	290.928680
3198.528527	-329.518982	147.084747	300.747528
3198.531854	-331.623047	149.597885	309.631226
3198.535189	-335.012878	151.351257	319.625366
3198.538522	-338.636475	153.630615	329.151947
3198.541857	-341.091187	155.968430	339.204559
3198.545190	-343.838104	158.189362	350.075409
3198.548566	-346.409698	159.942734	361.121582
3198.551886	-348.104614	162.455872	372.226166
3198.555185	-350.676208	164.735245	384.265930
3198.558523	-352.488037	166.663940	396.130341
3198.561849	-354.650513	169.410858	408.637665
3198.565202	-356.053192	170.872009	421.554077
3198.568518	-357.981873	172.566925	435.697815
3198.571851	-358.975464	174.787842	450.016968
3198.575186	-360.202820	176.073639	463.576263
3198.578516	-360.728821	178.469894	479.824097
3198.581857	-360.962616	179.697250	495.896576
3198.585186	-360.787262	180.690811	511.209229
3198.588516	-360.611938	181.625946	526.989502
3198.591848	-359.209229	183.087082	543.880188
3198.595202	-358.624786	183.496201	561.004700
3198.598521	-357.280548	183.729980	578.888977
3198.601845	-354.475159	184.431320	595.078369
3198.605178	-351.728241	183.613098	613.780823
3198.608521	-349.215088	183.496201	631.489807
3198.611851	-346.468140	183.028625	648.205139
3198.615182	-341.675629	182.561066	667.258362
3198.618512	-337.233795	182.035065	684.032166
3198.621887	-331.213898	180.281708	702.442444
3198.625181	-326.187622	179.580353	718.865601
3198.628515	-320.226196	177.067215	734.762756
3198.631841	-313.037415	176.073639	753.582153
3198.635182	-306.199310	173.502045	770.414429
3198.638551	-298.133850	171.690247	788.240234
3198.643148	-281.301575	166.780823	819.566956
3198.646081	-270.781433	164.676788	835.756287
3198.649378	-261.254822	161.170074	850.952087
3198.652807	-250.500885	158.540024	865.972595
3198.656124	-239.688507	155.617767	881.285278
3198.659432	-227.239624	152.578613	895.604370
3198.662721	-215.609009	149.013443	909.163635
3198.666023	-203.160156	145.740509	921.904724
3198.669349	-190.243713	141.707764	934.996460
3198.672273	-176.742828	137.616592	947.679199
3198.675606	-161.897705	133.116302	958.783813
3198.678937	-147.052612	128.440674	971.174194
3198.682314	-131.506134	123.940392	981.635925
3198.685625	-115.492104	118.797188	991.688538
3198.688953	-99.594978	113.361771	1000.981323
3198.692272	-81.886032	107.751015	1007.994812
3198.695195	-64.819984	102.315605	1015.768005
3198.698504	-47.461716	96.178841	1023.424316
3198.701837	-29.168320	89.574516	1029.561035
3198.705178	-11.167152	82.911743	1035.288696
3198.708517	7.418470	76.015190	1038.093994
3198.711835	26.471655	69.118645	1040.490356
3198.715169	45.583286	61.403862	1041.717773
3198.718507	64.344246	54.215080	1042.009888
3198.721832	83.338982	46.208069	1042.302124
3198.725198	101.573929	38.610168	1040.373413
3198.728506	119.808884	30.720047	1037.275757
3198.731832	138.102280	23.297487	1033.593750
3198.735169	156.571014	14.998246	1029.911743
3198.738515	174.338409	7.634132	1022.664490
3198.741836	191.229095	-1.308007	1016.995422
3198.745165	208.061371	-8.789012	1007.059631
3198.748502	223.958527	-15.510229	999.052612
3198.751832	239.037384	-22.465225	988.357117
3198.755213	254.233185	-29.361776	977.486267
3198.758501	267.441833	-35.790764	967.024597
3198.761841	280.767395	-41.985970	952.004089
3198.765166	293.391571	-47.596725	939.964355
3198.768529	305.080658	-53.733490	926.872620
3198.771835	316.652832	-59.402695	912.202820
3198.775169	327.231445	-64.370544	897.825317
3198.778495	337.050262	-68.578613	883.038574
3198.781849	345.641724	-73.721802	868.076599
3198.785157	354.700745	-77.812973	852.822388
3198.788497	363.409119	-80.852135	837.568176
3198.791832	370.071869	-85.293976	822.197021
3198.795165	376.851562	-87.865578	805.598511
3198.798495	383.689667	-90.846291	789.467590
3198.801827	390.118652	-93.593224	772.693787
3198.805159	395.320251	-96.632378	755.744629
3198.808494	399.236115	-98.970192	739.438354
3198.811844	403.210388	-101.015778	724.008789
3198.815164	406.424896	-103.295151	706.124512
3198.818499	410.983612	-104.697845	689.759827
3198.821823	412.152557	-106.860321	673.102844
3198.826493	417.061951	-109.782585	639.146179
3198.829419	418.289307	-110.834602	622.080078
3198.832676	418.581512	-112.821739	604.721863
3198.836041	418.756866	-114.224426	587.714233
3198.839364	418.113953	-115.510231	571.700195
3198.842763	418.230865	-116.562241	554.692627
3198.846113	417.471069	-117.555817	538.269470
3198.849418	417.237274	-118.315605	521.203430
3198.852679	414.782593	-119.601402	505.306244
3198.855622	413.730560	-119.718292	490.052032
3198.858925	411.509613	-120.478088	474.096436
3198.862250	409.230286	-120.536522	458.257751
3198.865576	405.898865	-121.237869	443.704834
3198.868914	402.801270	-121.120987	428.801300
3198.872246	399.411469	-121.646996	415.125061
3198.875602	395.787842	-121.997658	401.156616
3198.878952	392.164215	-121.763878	388.298676
3198.881822	388.365295	-121.004089	374.914642
3198.885207	384.449432	-121.120987	363.050262
3198.888488	380.533600	-121.004089	351.068970
3198.891824	375.624207	-120.770309	339.905884
3198.895157	371.474579	-119.835182	328.333710
3198.898516	367.032745	-119.659851	317.638214
3198.901820	363.409119	-119.075401	307.877838
3198.905151	359.259491	-118.257156	298.351257
3198.908484	355.285217	-118.023376	288.766235
3198.911831	350.375793	-116.679138	279.590302
3198.915148	346.226196	-115.802460	270.472809
3198.918480	341.433655	-114.575104	262.524261
3198.921817	338.219147	-113.523087	255.218582
3198.925149	334.069550	-112.295731	247.445358
3198.928481	330.095245	-111.243721	240.665680
3198.931818	325.594971	-110.133263	233.418472
3198.935145	322.029785	-109.081238	227.281708
3198.938477	317.295746	-107.970779	220.911163
3198.941828	313.263000	-106.977203	214.832840
3198.945151	309.522491	-106.100533	207.702499
3198.948483	305.314453	-104.990074	201.857971
3198.951815	301.632385	-103.645821	195.955002
3198.955157	297.073639	-102.067802	190.694916
3198.958480	293.391571	-101.483337	184.441269
3198.961812	290.118652	-100.255997	177.720047
3198.965145	285.735229	-98.970192	171.933960
3198.968477	281.994751	-97.742836	167.199890
3198.971810	278.838684	-96.515495	162.290482
