time (s)	magX	magY	magZ
5557.705910	-160.202789	74.904732	53.523670
5557.709248	-162.657501	75.839859	56.387489
5557.712584	-165.170654	77.125656	58.374638
5557.715921	-168.326721	77.943893	61.180012
5557.719247	-171.073639	79.405029	63.050262
5557.722575	-173.937469	80.398598	65.563408
5557.725916	-176.392151	82.327293	68.953247
5557.729244	-179.898895	82.970192	70.706604
5557.732610	-182.821167	84.957329	74.330215
5557.735916	-186.737000	85.775566	77.310928
5557.739242	-190.068390	87.879601	80.934540
5557.742579	-192.581543	89.048508	84.090591
5557.745917	-195.679138	90.918762	87.188194
5557.749239	-199.302734	91.795441	91.220917
5557.752575	-203.803040	93.665688	95.545883
5557.755913	-206.433075	96.120399	99.812386
5557.759244	-209.822906	97.289307	103.903564
5557.762578	-213.563416	98.808884	108.579193
5557.765902	-217.362366	100.562241	114.365280
5557.769240	-220.343079	102.490936	119.216248
5557.772576	-224.668030	104.887199	125.177666
5557.775919	-228.817657	106.523674	129.619522
5557.779248	-232.967255	108.393921	135.288712
5557.782576	-237.116882	110.497955	141.483932
5557.787177	-244.714783	114.355347	155.686157
5557.790097	-249.624207	116.284042	162.524261
5557.793462	-253.014038	118.388077	168.894806
5557.796773	-257.455872	120.433655	177.194031
5557.800167	-261.780853	122.420807	184.558151
5557.803501	-266.514893	124.700172	193.149628
5557.806849	-270.313873	126.628868	202.383987
5557.810088	-274.580353	128.674454	210.449448
5557.812995	-278.788422	130.369370	219.625366
5557.816324	-282.996490	132.999420	228.450623
5557.819683	-287.379883	134.460556	237.977203
5557.822993	-291.471069	136.389252	247.445358
5557.826327	-295.386932	137.791931	257.030396
5557.829675	-299.945648	138.785492	268.310333
5557.833017	-303.218597	140.305084	278.187622
5557.835899	-307.835785	141.766220	289.818237
5557.839234	-312.511414	143.519577	300.805969
5557.842575	-315.725891	144.571594	313.605499
5557.845900	-319.174164	145.798950	325.119232
5557.849236	-322.271790	146.734070	336.574524
5557.852568	-325.310944	148.078308	350.893616
5557.855931	-328.057861	149.071884	364.452942
5557.859233	-330.863251	149.656342	378.596710
5557.862581	-332.967255	150.766800	393.091156
5557.865904	-334.837524	151.059021	407.118073
5557.869231	-336.883118	151.175919	422.196960
5557.872560	-339.396271	151.760376	437.158966
5557.875900	-340.331390	151.760376	453.173004
5557.879226	-340.915863	151.760376	469.537689
5557.882561	-340.974304	152.052597	486.895966
5557.885893	-340.857391	151.643478	504.663361
5557.889226	-340.565155	151.351257	521.437195
5557.892566	-338.694916	150.240799	539.789001
5557.895901	-337.058472	149.773239	556.971985
5557.899222	-334.662170	148.136765	576.901855
5557.902560	-330.980133	147.260071	594.084778
5557.905898	-327.707214	145.039154	613.722412
5557.909224	-323.440674	143.461136	631.840515
5557.912568	-318.297485	141.590881	650.133850
5557.915893	-312.569855	138.960846	670.472839
5557.919229	-305.965515	135.337219	688.532471
5557.922562	-298.893616	132.414963	707.936279
5557.925894	-290.769714	130.018707	726.989502
5557.929228	-282.061371	125.401512	745.692017
5557.932562	-272.476349	119.966095	762.874939
5557.935889	-262.131500	115.173584	781.928101
5557.939225	-251.436005	110.673286	799.052612
5557.942560	-240.156067	105.179420	816.469360
5557.945891	-227.707184	98.691994	831.782043
5557.949242	-214.849213	92.496780	848.380554
5557.952562	-201.699005	86.009346	863.342529
5557.955894	-187.438354	79.054352	876.784973
5557.959216	-172.593231	71.748688	891.162476
5557.963487	-141.441833	56.202225	915.534180
5557.966832	-125.077156	48.545883	926.755676
5557.970140	-108.829338	40.363533	935.347229
5557.973407	-91.997078	32.707191	944.055542
5557.976735	-74.346581	25.109293	949.490967
5557.980071	-57.338982	16.400936	957.497925
5557.983423	-39.630039	7.634132	962.115173
5557.986799	-21.862652	-1.074225	967.667480
5557.989671	-3.803040	-9.315021	969.303955
5557.993014	14.490358	-16.912916	969.479248
5557.996338	33.309761	-25.621273	970.823547
5557.999643	50.025131	-33.043831	968.485718
5558.002969	67.967857	-40.466393	965.446533
5558.006328	85.793694	-48.122734	962.348938
5558.009638	103.268852	-55.837524	956.329041
5558.012968	120.042664	-63.552307	949.724731
5558.015885	137.050262	-70.215080	942.010010
5558.019220	153.882538	-75.884277	934.470520
5558.022551	169.779663	-82.488602	925.002380
5558.025884	185.559906	-88.742256	915.651123
5558.029216	201.340149	-94.002335	903.903564
5558.032549	216.068390	-99.905319	890.928711
5558.035880	229.803040	-104.405609	876.142090
5558.039216	243.128571	-109.431915	861.589111
5558.042553	256.161896	-113.230865	848.029846
5558.045878	268.376984	-117.906494	829.444214
5558.049213	279.773804	-122.056107	814.423706
5558.052550	290.586212	-125.504379	796.247253
5558.055878	300.463440	-128.426651	779.005859
5558.059211	309.522491	-131.758041	761.647644
5558.062543	317.354156	-134.797195	742.009949
5558.065879	326.471649	-137.018112	724.476379
5558.069211	332.549957	-139.765060	705.130920
5558.072544	338.452942	-141.401520	685.668640
5558.075878	343.946808	-142.979538	666.498596
5558.079233	347.921112	-145.375809	647.679138
5558.082550	351.953827	-146.135605	629.151978
5558.085871	355.226776	-147.772064	609.514343
5558.089211	358.324371	-148.181183	592.097656
5558.092546	360.253052	-148.707199	573.278198
5558.095875	360.954407	-149.700775	554.341980
5558.099214	361.655762	-149.525421	536.165466
5558.102547	361.947968	-149.934555	519.216248
5558.105871	361.772644	-150.402115	502.208649
5558.109265	361.305084	-149.583878	485.902405
5558.112542	360.253052	-149.116302	468.076538
5558.115866	358.324371	-149.291641	453.406799
5558.119207	357.213898	-148.824081	436.165405
5558.122572	354.817657	-147.772064	423.424316
5558.125874	352.246033	-147.070724	407.644073
5558.129211	350.025116	-145.784927	393.909424
5558.132533	346.518402	-145.142029	379.940979
5558.135883	344.297485	-143.505554	366.440094
5558.139206	341.492096	-142.219757	353.173004
5558.143889	334.127991	-139.297485	329.385742
5558.146749	331.147278	-137.602570	316.936890
5558.150132	326.997650	-136.258331	305.189362
5558.153495	322.964935	-134.621872	293.558716
5558.156731	319.165985	-132.926941	282.337219
5558.160060	315.191681	-130.881348	272.576843
5558.163378	310.866730	-129.244888	261.413788
5558.166768	306.191101	-127.199295	251.653412
5558.170077	302.333710	-125.504379	242.535934
5558.172984	297.132080	-123.049683	233.827576
5558.176317	293.625336	-121.705429	224.534790
5558.179647	289.826416	-119.542961	216.177094
5558.183009	285.267670	-117.614265	207.527176
5558.186288	280.241364	-115.685562	199.344818
5558.189627	276.150208	-113.347748	191.630035
5558.192957	271.942139	-110.776154	183.739914
5558.195868	267.324951	-109.022789	176.142029
5558.199200	263.292206	-107.503220	169.771484
5558.202532	259.785522	-105.749855	162.407364
5558.205862	254.525421	-104.113380	155.686157
5558.209212	250.960266	-102.067802	149.900055
5558.212530	246.810638	-100.314430	144.230850
5558.215862	242.661011	-98.853310	137.743423
5558.219200	238.511383	-97.158394	132.541779
5558.222525	234.537109	-95.288139	127.690826
5558.225864	230.445923	-94.177673	122.489189
5558.229192	226.822327	-92.541206	118.164230
5558.232527	222.789612	-91.606079	113.839279
5558.235916	219.399750	-89.677383	109.046753
5558.239196	215.250153	-88.508476	105.247803
5558.242532	212.386322	-87.281128	100.513733
5558.245856	209.054932	-86.229111	97.299240
5558.249196	206.074219	-85.060196	93.617180
5558.252559	202.742828	-83.891289	90.636467
5558.255860	199.060791	-82.196381	86.603745
5558.259189	196.080078	-81.319695	84.032150
5558.262525	193.216248	-79.975456	81.635887
5558.265874	190.352417	-79.040329	78.830505
5558.269195	187.196381	-77.988312	76.317360
5558.272527	184.157227	-76.819412	72.985970
5558.275861	182.053192	-75.708946	71.057274
5558.279185	179.832275	-74.773819	68.427231
5558.282524	177.202209	-73.604912	66.264755
5558.285858	174.513733	-72.377556	64.336060
5558.289188	172.760376	-71.617767	61.647575
5558.292520	170.130341	-70.624199	59.543541
5558.295875	167.617187	-70.156631	58.023964
5558.299191	166.448273	-68.987724	56.153706
5558.302566	163.292236	-67.994164	53.991234
5558.305857	161.188202	-67.117477	52.530098
5558.309206	158.908844	-65.071884	50.835182
5558.312519	156.980133	-64.370544	48.731152
5558.315852	155.109894	-63.961426	47.270016
5558.320502	150.843384	-62.091179	44.113968
5558.323870	148.856232	-60.688492	42.068378
5558.326725	147.044418	-59.987144	40.841026
5558.330155	145.641724	-59.052017	39.613674
5558.333446	143.596146	-58.233780	38.561657
5558.336708	141.492126	-58.350670	36.691406
5558.340076	139.388062	-57.181763	34.996494
5558.343370	137.693176	-56.889542	34.178261
5558.346747	136.874924	-55.486855	33.009350
5558.349604	134.712448	-54.960838	32.132671
5558.352949	133.601990	-53.850380	31.080654
5558.356284	132.433075	-53.675041	30.320866
5558.359623	131.439514	-53.032150	29.035069
5558.362965	129.510803	-52.973701	27.632380
5558.366275	128.575684	-52.155464	27.515490
5558.369606	127.640556	-51.863243	26.054354
5558.372513	126.179436	-51.278786	25.820574
5558.375850	124.776741	-50.343658	25.236120
5558.379179	123.841621	-50.226768	24.359440
5558.382545	122.964928	-50.051430	23.833431
5558.385846	121.211571	-49.116310	23.365870
5558.389185	120.685562	-49.174751	22.606079
5558.392512	119.808884	-48.765633	22.489187
5558.395855	118.873756	-48.707184	22.664526
5558.399178	117.938629	-48.005844	21.554062
5558.402513	116.594391	-47.187607	21.554062
5558.405847	116.302162	-47.070717	20.560492
5558.409174	115.250145	-46.953827	19.566921
5558.412509	114.841034	-46.369370	19.976038
5558.415846	114.490356	-46.603157	19.683811
5558.419181	113.204559	-46.369370	19.508476
5558.422510	112.853889	-46.135590	18.982468
5558.425867	112.444771	-46.135590	19.274694
5558.429172	112.269432	-45.726479	17.813559
5558.432505	111.275864	-45.434250	18.339569
5558.435836	111.334305	-44.849792	18.339569
5558.439175	110.340736	-45.025131	17.638224
5558.442509	110.282288	-44.499123	17.404442
5558.445838	109.697838	-44.499123	17.404442
5558.449172	109.464058	-44.440674	17.053770
5558.452508	108.704269	-43.973114	17.229105
5558.455838	108.470490	-43.914665	16.352425
5558.459170	107.944473	-43.739334	16.177090
5558.462503	108.236710	-42.862656	16.352425
5558.465838	107.652252	-42.687317	16.352425
5558.469177	107.710693	-43.037987	15.534190
5558.472507	107.126244	-42.687317	15.125073
5558.475838	106.775566	-43.037987	15.008183
5558.479163	106.424896	-42.511978	14.482174
5558.482506	106.366455	-42.628868	13.956165
5558.485836	105.898895	-42.278198	14.657510
5558.489174	105.782005	-42.395088	14.248392
5558.492507	105.957336	-42.044418	14.131501
5558.497099	105.489769	-41.635300	13.839275
5558.500474	105.782005	-42.219757	13.137931
5558.503379	106.074226	-41.752190	12.962595
5558.506740	105.782005	-41.459961	13.663939
5558.510081	106.424896	-41.635300	13.079486
5558.513447	105.782005	-41.985970	13.663939
5558.516687	106.308006	-41.985970	13.839275
5558.520010	106.483345	-42.628868	13.780829
5558.523350	106.834015	-41.985970	14.365283
5558.526258	106.892464	-42.570427	14.365283
5558.529604	107.243134	-42.745766	14.306838
5558.532925	107.126244	-43.037987	15.358854
5558.536308	107.652252	-42.862656	15.066628
5558.539610	108.295151	-43.096436	15.826417
5558.542938	108.704269	-42.745766	15.183518
5558.546264	109.580948	-42.804207	16.586206
5558.549183	109.113380	-43.622444	16.352425
5558.552493	110.106956	-43.330215	17.112215
5558.555834	110.574516	-43.914665	16.469316
5558.559160	111.684975	-43.797775	17.170660
5558.562489	112.737000	-44.440674	17.287550
5558.565830	112.386330	-44.616013	17.404442
5558.569158	113.438347	-44.499123	17.755114
5558.572491	114.022797	-44.791351	18.456459
5558.575826	114.724144	-44.557564	18.631796
5558.579182	115.542374	-44.908241	18.924023
5558.582495	116.594391	-45.142021	20.092928
5558.585824	117.412628	-45.317360	20.677382
5558.589162	118.113968	-45.375809	20.618937
5558.592495	118.756866	-45.492699	21.437172
5558.595824	119.984222	-45.551140	22.313852
5558.599156	121.036240	-46.252480	21.963179
5558.602493	121.620689	-46.427818	22.722971
5558.605820	122.672714	-45.726479	23.073643
5558.609158	123.140274	-46.135590	23.307425
5558.612492	124.075401	-46.369370	24.768557
5558.615827	125.594971	-47.246056	24.710112
5558.619154	126.646996	-47.772064	24.710112
5558.622521	127.231445	-47.713615	26.229691
5558.625827	128.283463	-48.181183	25.879019
5558.629154	129.919937	-48.005844	27.164816
5558.632492	131.205719	-48.414963	28.509060
5558.635834	132.374634	-48.940964	28.450615
5558.639154	133.485107	-49.466980	28.859732
5558.642490	135.004669	-49.700760	29.911749
5558.645819	136.115143	-50.343658	31.372881
5558.649148	137.576263	-51.103447	32.015778
5558.652518	139.504974	-51.571007	33.301575
5558.655819	140.966095	-51.863243	34.821156
5558.659156	143.011688	-52.564583	35.814728
5558.662483	144.531281	-52.915253	37.275860
5558.665844	146.518402	-53.850380	38.269432
5558.669157	148.739349	-54.668617	39.555229
5558.672488	150.200470	-55.662186	41.367035
5558.677159	154.174744	-56.655754	43.821743
5558.680074	156.746338	-57.006432	45.750439
5558.683360	158.791931	-58.058449	47.737579
5558.686698	161.071289	-58.876678	49.257156
5558.690085	163.584473	-59.694916	51.244301
5558.693400	165.513153	-60.688492	52.471653
5558.696772	168.260071	-60.746933	55.101692
5558.700000	170.480988	-61.506721	56.796608
5558.703331	173.227936	-62.091179	58.433079
5558.706231	175.741089	-63.026306	61.647575
5558.709579	178.663361	-62.967857	63.459377
5558.712903	181.059601	-64.019875	65.797195
5558.716232	183.923431	-64.545883	67.667450
5558.719592	186.787262	-65.422562	70.706604
5558.722937	190.235535	-65.188782	73.395088
5558.726263	192.807129	-66.299240	74.973114
5558.729149	195.495605	-67.059029	78.246056
5558.732476	198.885468	-68.052605	81.518997
5558.735809	201.866150	-68.812393	84.733490
5558.739172	205.256012	-69.338402	87.655754
5558.742479	208.236694	-69.572182	90.461136
5558.745805	211.977203	-70.799538	93.032730
5558.749142	215.250153	-71.617767	96.773232
5558.752490	219.165985	-72.436005	100.513733
5558.755810	222.555817	-72.903564	104.195793
5558.759138	226.588531	-73.663353	107.877846
5558.762475	230.153717	-74.540039	112.378143
5558.765804	233.835754	-75.884277	116.352425
5558.769138	237.459381	-76.527176	122.372292
5558.772472	240.907654	-77.812973	126.697250
5558.775803	245.817078	-78.397430	131.781998
5558.779137	249.089996	-78.864990	136.925186
5558.782492	252.947388	-80.267677	142.652832
5558.785802	257.739929	-81.495033	147.737579
5558.789189	260.895966	-81.962601	152.646988
5558.792474	265.454712	-83.014618	159.485107
5558.795812	269.896545	-84.300415	166.089432
5558.799140	275.565735	-85.060196	173.511978
5558.802466	279.306244	-85.644653	180.700760
5558.805808	283.923431	-86.579781	188.649338
5558.809137	287.780823	-87.690239	195.779663
5558.812471	292.281128	-88.391586	203.377563
5558.815806	297.716553	-89.735832	212.319702
5558.819143	302.567505	-90.086502	220.385162
5558.822467	307.886017	-91.138519	229.619507
5558.825826	310.983612	-91.547630	238.853897
5558.829134	317.178833	-91.898308	248.497375
5558.832469	321.912903	-92.365868	258.608429
5558.835798	326.004089	-93.125656	268.661011
5558.839132	330.855042	-93.242554	279.473419
5558.842462	335.355347	-93.768555	290.285797
5558.845797	339.329620	-94.236115	301.624176
5558.849128	344.706604	-93.885445	313.897705
5558.853826	353.648712	-93.534775	337.100525
5558.856695	358.090576	-92.950317	349.607849
5558.859983	361.655762	-92.950317	363.576294
5558.863362	365.746918	-92.424316	377.018707
5558.866670	369.779663	-90.963181	389.584442
5558.870017	372.117462	-89.969612	404.488037
5558.873398	375.565735	-89.209816	418.982452
5558.876721	379.306244	-87.514908	433.009369
5558.879636	381.994751	-86.813560	447.445343
5558.882897	384.858551	-85.410873	461.998260
5558.886218	386.845703	-83.306839	478.362915
5558.889553	388.423706	-81.553474	494.902985
5558.892894	389.826416	-80.033897	510.683228
5558.896208	390.060211	-77.579193	527.632385
5558.899568	390.995331	-75.124489	544.756897
5558.902894	390.703094	-72.728226	561.472290
5558.905835	389.826416	-70.507309	577.427856
5558.909128	389.943298	-67.409698	595.253662
5558.912463	388.189941	-64.545883	612.845703
5558.915794	386.202820	-61.039162	630.554687
5558.919129	383.514313	-57.473991	647.328491
5558.922486	379.423126	-53.324371	664.803650
5558.925792	374.747498	-49.583870	682.512573
5558.929130	369.545868	-45.726479	700.689087
5558.932455	364.987122	-41.518410	717.813599
5558.935788	358.032135	-37.485680	733.769165
5558.939119	351.135590	-31.933371	750.776794
5558.942456	343.245483	-26.322617	766.849243
5558.945790	334.420227	-20.945646	782.629517
5558.949163	325.244293	-15.451784	798.059021
5558.952459	315.133240	-9.139684	812.670410
5558.955804	304.671539	-2.944477	827.457092
5558.959122	293.450012	4.302747	840.022827
5558.962455	281.001160	11.783752	853.582153
5558.965789	267.734070	18.738750	865.037415
5558.969123	254.992981	26.453537	875.849792
5558.972453	241.492096	34.402103	884.265991
5558.975787	226.647003	42.292229	893.325012
5558.979121	212.152527	50.591469	900.981323
5558.982450	197.073639	58.481590	908.170105
5558.985783	181.234955	67.482178	914.306885
5558.989149	165.045593	75.839859	917.112244
5558.992482	148.388657	84.372879	920.560547
5558.995782	131.088837	93.022797	923.132080
5558.999126	114.373466	101.731148	923.307495
5559.002458	97.365868	109.796616	922.956848
5559.005787	80.241379	118.504974	920.560547
5559.009121	62.473995	126.745766	917.813538
5559.012445	45.700176	135.454117	915.358887
5559.015780	29.101696	142.701340	910.800110
5559.019119	10.925191	150.182343	905.715454
5559.022450	-5.731735	157.488022	898.175964
5559.025780	-22.680889	164.267670	890.636536
5559.029117	-39.279366	172.274689	881.402161
5559.033820	-71.774986	183.554642	862.173645
5559.036760	-86.912331	189.457626	851.828857
5559.040033	-101.874336	195.009933	839.964355
5559.043328	-117.187019	199.627121	827.281738
5559.046624	-131.739929	204.127411	814.657532
5559.049962	-145.533020	207.984802	800.689087
5559.053326	-158.741669	212.192856	786.954407
5559.056659	-172.008759	215.465805	772.343079
5559.059577	-184.516083	218.388077	756.971985
5559.062899	-196.322021	221.251892	741.367065
5559.066232	-207.017548	223.005264	725.353027
5559.069539	-217.070129	224.933945	710.800110
5559.072895	-227.239624	226.745758	694.377014
5559.076211	-235.305115	228.265350	677.252502
5559.079145	-245.065460	228.557556	659.485107
5559.082441	-252.429596	228.323792	643.120422
5559.085779	-260.261261	229.142014	626.054382
5559.089108	-266.807129	228.849792	608.696106
5559.092448	-272.008789	229.142014	591.513184
5559.095779	-277.736420	228.323792	574.564026
5559.099108	-282.704254	227.505554	557.907104
5559.102444	-287.263031	227.096436	540.957947
5559.105776	-290.652832	226.278198	525.060791
5559.109101	-293.049103	225.050842	509.163666
5559.112439	-295.328461	223.648163	492.682068
5559.115775	-297.081848	221.894806	475.206879
5559.119108	-298.718292	220.375214	460.128021
5559.122479	-300.647003	218.154297	445.399750
5559.125774	-300.120972	216.693161	430.437744
5559.129117	-301.348328	214.413803	415.709534
5559.132438	-300.530121	211.549973	402.325531
5559.135765	-299.653412	209.621277	387.889526
5559.139100	-299.244324	207.634125	374.271759
5559.142444	-297.841614	205.120987	361.706024
5559.145767	-296.438934	202.198715	348.848053
5559.149100	-295.153137	199.627121	336.282288
5559.152434	-292.113983	196.997070	324.593231
5559.155765	-291.003510	193.548798	313.313263
5559.159104	-288.081238	191.152542	302.910004
5559.162438	-286.269440	187.996490	290.519592
5559.165792	-283.405609	185.015778	280.934540
5559.169101	-281.243134	181.742844	271.232605
5559.172435	-277.444183	179.229691	261.004669
5559.175770	-275.164825	176.424301	252.296310
5559.179102	-271.716553	172.450027	242.594391
5559.182447	-269.437164	169.469315	234.470474
5559.185777	-266.573364	166.663940	225.995911
