time (s)	magX	magY	magZ
4846.803678	133.075974	-54.376389	40.490356
4846.807011	134.654007	-54.142609	41.250145
4846.810342	135.121582	-53.850380	41.659260
4846.813678	135.764465	-54.317947	42.360607
4846.817028	137.634720	-55.253067	43.354179
4846.820381	138.394501	-55.837524	44.523087
4846.823680	139.680298	-55.837524	44.581532
4846.827009	141.141449	-56.188194	45.399765
4846.830339	142.602570	-56.655754	46.627117
4846.833673	143.245468	-57.240211	47.328461
4846.837006	145.232620	-57.824661	48.731152
4846.840337	146.167740	-57.824661	49.374050
4846.843673	147.161316	-58.292229	49.549385
4846.847010	148.563995	-58.292229	50.484509
4846.850339	149.791351	-59.227356	51.361191
4846.853675	151.194031	-60.162476	52.997658
4846.857009	152.421387	-60.513153	53.757450
4846.860361	154.174744	-61.156052	55.160141
4846.863674	155.986572	-61.506721	56.913498
4846.867010	157.272339	-62.208069	58.433079
4846.870335	159.025726	-63.786087	60.478668
4846.873672	161.129761	-63.961426	61.238453
4846.877003	163.000000	-64.370544	64.219170
4846.880333	165.279358	-65.948570	65.621857
4846.883667	167.500305	-66.474579	67.667450
4846.887004	169.019867	-67.059029	69.420807
4846.890335	170.714783	-67.643478	71.291061
4846.893665	173.578613	-68.870834	73.687317
4846.897005	175.916412	-68.929283	75.440681
4846.900332	178.488007	-70.156631	77.544708
4846.903666	180.299835	-70.565758	80.291641
4846.906998	183.105194	-71.383987	82.337227
4846.910346	185.501465	-72.319115	85.493279
4846.913666	188.014618	-72.845123	87.831093
4846.917001	191.462891	-74.072472	91.045586
4846.920331	193.157806	-74.715370	94.260086
4846.923665	196.255402	-75.299828	97.182350
4846.928360	202.509064	-76.760963	103.494453
4846.931278	205.256012	-77.345413	107.351837
4846.934600	207.593811	-78.631210	110.098763
4846.937837	210.983643	-79.274109	114.014610
4846.941213	213.789001	-79.800117	117.462883
4846.944510	217.354187	-80.326126	121.144951
4846.947911	219.458221	-81.436584	124.593224
4846.951202	222.848022	-82.313271	128.742844
4846.954151	226.004089	-83.306839	132.424896
4846.957448	228.984802	-83.891289	136.632965
4846.960781	232.140839	-84.826416	140.665695
4846.964091	235.647583	-85.995331	145.984222
4846.967433	238.978943	-87.105789	150.133835
4846.970747	241.725891	-88.099358	155.160141
4846.974087	244.881927	-89.092926	160.127991
4846.977427	248.739349	-89.852722	165.271179
4846.980324	252.012268	-90.904739	170.940384
4846.983658	255.986542	-92.365868	176.317352
4846.986998	259.025726	-93.359444	181.986557
4846.990327	262.415558	-94.236115	187.947983
4846.993659	265.688477	-94.995911	195.312088
4846.996996	270.013458	-96.281715	201.390411
4847.000328	273.344818	-97.333725	208.696091
4847.003656	277.085327	-98.385742	216.293991
4847.007020	280.592041	-99.846870	224.125656
4847.010324	284.741669	-100.723557	232.015793
4847.013656	288.482147	-101.483337	239.379898
4847.016990	291.696655	-103.178261	247.737579
4847.020320	295.495636	-103.295151	256.855042
4847.023657	299.469879	-104.054932	265.212738
4847.026987	304.262421	-105.048508	275.206879
4847.030323	307.652252	-105.399185	285.785492
4847.033660	310.691406	-106.217415	296.305664
4847.036992	314.373474	-106.860321	306.708954
4847.040347	317.997070	-106.509644	317.579773
4847.043657	321.328461	-107.444771	328.392151
4847.046988	324.952057	-107.912331	340.198120
4847.050318	327.932770	-107.678551	352.237885
4847.053655	331.731750	-106.860321	364.803619
4847.056989	334.595551	-107.327888	376.960266
4847.060315	337.225586	-106.977203	390.519592
4847.063651	340.206299	-106.451195	403.202240
4847.066984	342.076569	-105.925194	414.774414
4847.070318	344.180603	-106.275864	428.216827
4847.073705	346.459961	-104.347168	442.711304
4847.076984	348.213318	-103.762718	456.562836
4847.080317	349.206879	-103.061371	469.596130
4847.083687	350.960236	-101.249557	484.616608
4847.086988	351.895386	-100.022217	499.461731
4847.090316	351.953827	-98.794861	512.553528
4847.093649	352.129150	-97.918182	527.340210
4847.096998	351.194031	-95.814148	542.126892
4847.100317	350.960236	-94.119225	557.673340
4847.103646	350.317352	-92.599648	572.401550
4847.106976	348.914673	-90.437172	586.369995
4847.111663	343.713043	-86.287552	617.229126
4847.114527	341.492096	-83.014618	633.126282
4847.117903	337.108704	-80.092346	648.263611
4847.121236	332.783752	-77.579193	663.810059
4847.124501	329.101685	-74.715370	679.414978
4847.127868	323.900055	-71.442429	693.967896
4847.131164	317.997070	-67.409698	709.689697
4847.134518	311.158966	-63.961426	722.839905
4847.137402	304.087097	-59.870255	737.626587
4847.140764	296.664520	-54.843948	752.179443
4847.144091	288.306824	-50.402107	765.563477
4847.147424	279.423126	-46.135590	779.590332
4847.150829	269.487427	-40.641731	791.805420
4847.154067	259.551727	-34.855637	805.014099
4847.157400	249.206909	-30.296904	815.943298
4847.160312	237.693176	-23.751022	827.749329
4847.163643	226.004089	-17.789597	838.561707
4847.166977	212.269440	-10.834599	848.146667
4847.170326	199.645233	-3.821157	856.387512
4847.173637	186.670380	3.367621	863.634766
4847.176974	172.117462	11.316190	870.472900
4847.180309	158.149048	19.147865	874.856262
4847.183641	143.946808	26.102865	880.817688
4847.186968	127.991234	34.577438	882.980103
4847.190305	113.438347	41.883110	886.779114
4847.193640	97.658096	49.948570	887.480408
4847.196975	82.403854	58.306252	888.824707
4847.200305	66.740509	66.254822	887.597351
4847.203635	50.258911	74.028053	886.603821
4847.207027	35.063122	82.268845	884.090576
4847.210305	19.107540	89.691406	879.356567
4847.213669	3.210405	96.529510	875.849792
4847.216972	-11.693161	105.120987	870.940369
4847.220302	-26.596725	111.316185	864.686768
4847.223636	-41.792519	118.563408	857.790222
4847.226987	-55.936295	125.518410	850.075378
4847.230299	-71.132088	131.772064	842.010010
4847.233635	-84.399178	138.434830	832.600281
4847.236975	-98.952080	143.694916	823.541199
4847.240308	-112.277611	148.896545	813.196411
4847.243640	-124.668022	154.331970	802.617798
4847.246968	-137.292236	158.540024	792.214478
4847.250300	-149.215088	163.683228	778.713623
4847.253632	-162.014618	167.715942	766.206360
4847.256989	-172.943878	171.690247	753.173035
4847.260301	-183.814728	175.430740	739.204590
4847.263635	-194.334900	178.002335	725.411499
4847.266959	-204.270599	181.216827	712.202881
4847.270300	-213.797180	183.729980	698.059021
4847.273630	-222.213318	186.067795	682.746399
4847.276963	-231.097015	189.048508	668.251892
4847.280294	-238.636475	191.269424	652.120972
4847.283632	-245.591492	192.964340	636.925232
4847.286970	-252.604919	194.133255	621.670959
4847.291589	-264.586212	196.354187	589.584473
4847.294514	-269.612518	197.230850	573.044434
4847.297831	-274.288147	197.756866	558.900635
4847.301277	-278.379303	197.990646	543.938660
4847.304576	-282.002930	197.932205	525.879089
4847.307880	-284.866760	198.750443	509.864990
4847.311138	-288.081238	198.633545	494.844513
4847.314494	-290.126831	198.165985	478.187592
4847.317383	-291.354187	198.224426	463.284058
4847.320722	-292.172424	196.471069	448.555847
4847.324057	-293.458221	195.652832	434.470490
4847.327410	-293.575104	194.717712	420.034485
4847.330749	-293.867340	193.899475	405.130890
4847.334077	-292.581543	192.613678	392.740509
4847.337442	-292.172424	190.568085	379.298065
4847.340292	-291.821747	189.574524	366.790771
4847.343643	-290.243713	187.645828	353.523682
4847.346956	-288.548798	185.892456	342.360596
4847.350293	-287.204559	184.080658	329.561066
4847.353618	-285.392761	181.918167	319.450043
4847.356953	-283.171814	179.697250	308.696075
4847.360286	-281.067810	177.885437	298.117493
4847.363621	-278.846893	174.904739	287.947968
4847.366955	-276.567505	172.566925	277.427826
4847.370290	-273.937469	170.229111	268.719482
4847.373623	-271.190521	168.417297	258.959076
4847.376954	-268.794281	165.378128	250.659851
4847.380315	-265.696686	162.631210	242.009933
4847.383626	-262.949738	160.760956	233.360016
4847.386948	-260.085937	158.832260	225.586777
4847.390283	-256.871429	156.085327	216.995316
4847.393646	-254.299835	153.338409	210.157211
4847.396954	-251.669800	150.182343	203.319107
4847.400288	-248.396851	147.902985	196.071884
4847.403623	-245.649902	144.805374	190.168900
4847.406947	-241.967865	142.759796	183.915253
4847.410289	-239.045593	140.363525	176.142029
4847.413620	-236.240234	137.499710	169.888367
4847.416952	-233.201050	135.629456	163.517822
4847.420283	-229.577454	133.291641	157.731735
4847.423654	-226.362946	130.427826	152.413208
4847.426951	-223.323761	128.148453	146.510223
4847.430282	-220.167725	125.693741	140.548798
4847.433617	-217.362366	122.888367	135.522491
4847.436944	-213.563416	121.076569	131.197540
4847.440282	-211.050262	118.972534	126.755699
4847.443620	-207.075989	116.926941	120.794273
4847.446947	-204.270599	114.706024	115.884865
4847.450279	-200.705444	112.894203	110.800110
4847.453614	-198.367615	110.497955	107.176506
4847.456942	-195.270020	108.861488	102.793106
4847.460276	-191.529510	107.225021	98.818817
4847.463612	-189.425507	105.296318	95.954994
4847.466961	-186.327881	104.010513	91.980713
4847.471579	-180.600250	100.153122	84.090591
4847.474906	-177.035065	98.984215	81.460548
4847.477824	-175.281708	97.172417	78.362946
4847.481153	-171.891876	95.068375	75.674461
4847.484570	-169.612518	93.957916	73.628868
4847.487884	-167.333130	92.730560	70.531265
4847.491172	-164.703094	91.210983	68.368790
4847.494462	-162.306824	89.749855	65.680298
4847.497792	-159.910583	88.639389	63.926941
4847.500701	-157.689667	87.353592	61.530685
4847.504025	-155.527161	86.009346	59.309761
4847.507363	-153.773834	85.074219	56.796608
4847.510751	-151.728210	83.145531	55.452362
4847.514055	-149.507294	82.327293	53.757450
4847.517390	-147.812378	80.866158	52.296314
4847.520711	-145.299255	79.580360	51.010517
4847.523602	-143.721222	78.995903	50.075394
4847.526939	-142.376984	77.710106	48.146698
4847.530277	-140.565155	75.839859	46.977791
4847.533605	-139.162476	75.138512	46.334892
4847.536937	-138.227356	74.203392	44.113968
4847.540275	-136.123322	73.385155	42.535942
4847.543601	-134.311523	72.040909	40.548801
4847.546941	-132.850372	71.105782	39.964348
4847.550270	-130.629456	70.287552	39.204556
4847.553638	-129.928101	69.527763	37.451199
4847.556933	-128.992981	68.358849	36.749855
4847.560271	-126.772057	67.891289	36.048508
4847.563601	-124.843376	67.014610	34.528931
4847.566934	-123.849800	65.495033	33.710693
4847.570266	-122.447105	64.735237	32.191116
4847.573603	-120.869072	63.624779	31.197546
4847.576930	-118.881935	62.864990	30.905319
4847.580273	-117.888374	62.689659	28.976624
4847.583603	-116.894798	61.579193	28.275278
4847.586933	-116.135017	61.286972	27.340153
4847.590265	-114.966087	60.059616	26.989479
4847.593598	-113.154289	59.533600	26.112801
4847.596970	-111.985390	58.540039	25.119228
4847.600261	-111.284035	58.364693	24.125658
4847.603605	-109.355339	57.663353	23.658096
4847.606930	-108.946220	57.371132	23.365870
4847.610263	-107.485085	56.494446	22.255405
4847.613593	-107.192879	55.851547	21.670954
4847.616929	-105.556389	55.500877	21.028055
4847.620263	-104.913498	54.857979	20.618937
4847.623599	-104.329048	54.682640	20.326710
4847.626933	-103.160141	54.624191	19.157804
4847.630257	-102.692581	53.338394	19.450029
4847.633595	-101.991234	53.163063	18.456459
4847.636930	-101.114548	52.870834	17.521332
4847.640283	-100.588547	52.227936	17.462887
4847.643595	-99.653419	52.637054	18.105785
4847.646929	-99.244293	52.052597	17.112215
4847.651534	-97.724724	52.052597	17.345997
4847.654885	-97.315613	51.585037	17.053770
4847.657776	-97.841606	51.175919	16.235535
4847.661139	-96.789597	50.942139	16.352425
4847.664484	-96.789597	50.942139	16.410872
4847.667849	-96.555817	50.065460	16.352425
4847.671207	-95.620689	50.007011	16.644651
4847.674434	-95.854469	50.123901	16.469316
4847.677781	-94.919350	49.831680	16.060200
4847.680692	-95.036232	49.422562	15.767972
4847.684044	-94.510223	49.130333	15.241963
4847.687348	-94.393333	48.604324	15.008183
4847.690689	-94.568672	48.604324	14.599064
4847.694041	-93.575096	48.721214	14.599064
4847.697363	-93.808876	48.779663	15.183518
4847.700720	-93.867325	48.312096	14.891292
4847.703587	-93.341316	47.844536	14.657510
4847.706923	-93.867325	47.727646	14.774401
4847.710251	-93.224434	48.078316	14.832847
4847.713583	-93.107536	48.312096	14.949737
4847.716923	-91.997078	47.435417	14.774401
4847.720253	-92.347755	47.435417	14.248392
4847.723589	-92.523087	47.727646	14.189947
4847.726949	-91.763290	47.844536	14.131501
4847.730257	-91.587959	47.201637	13.956165
4847.733587	-91.471062	47.669197	13.839275
4847.736914	-91.354179	47.084747	13.313267
4847.740249	-91.354179	46.967857	14.073056
4847.743582	-91.178848	47.552307	13.021040
4847.746917	-91.295731	46.909409	13.897720
4847.750248	-91.529510	46.909409	13.430158
4847.753586	-91.704842	47.260086	13.956165
4847.756931	-91.529510	47.961426	13.605494
4847.760252	-91.295731	47.610756	13.371713
4847.763580	-91.880188	47.786095	13.605494
4847.766919	-91.821739	47.493866	13.897720
4847.770258	-92.406189	48.370544	14.248392
4847.773583	-93.165985	47.961426	14.540619
4847.776918	-92.581535	47.961426	14.131501
4847.780245	-93.516663	48.195206	14.540619
4847.783585	-93.575096	48.896553	15.066628
4847.786910	-94.159554	49.071892	14.774401
4847.790248	-94.393333	49.130333	15.125073
4847.793577	-94.568672	49.305672	15.709526
4847.796912	-95.094681	49.247223	15.943308
4847.800258	-95.562241	50.007011	16.352425
4847.803574	-96.029808	50.649910	16.586206
4847.806916	-96.964928	50.533020	16.527761
4847.810251	-97.724724	50.649910	16.235535
4847.813577	-98.250732	50.766800	17.404442
4847.816957	-99.185860	51.409698	18.047340
4847.820249	-99.887207	51.701927	19.099358
4847.823580	-100.705437	51.292809	19.099358
4847.826905	-100.588547	51.818817	18.865578
4847.830284	-101.932785	52.344826	19.099358
4847.834878	-103.277031	52.520164	20.034483
4847.837793	-104.329048	53.046173	20.560492
4847.841113	-104.504379	53.981293	21.320280
4847.844524	-104.796616	54.565750	21.495617
4847.847858	-106.199303	54.857979	21.963179
4847.851181	-106.666862	55.091759	22.313852
4847.854420	-107.894218	55.442429	22.781416
4847.857759	-108.712440	56.085335	22.781416
4847.861086	-109.004677	56.319115	23.658096
4847.863998	-110.524254	56.962006	23.774986
4847.867336	-111.108711	57.195793	24.593222
4847.870657	-111.868507	57.897133	24.300995
4847.874044	-112.628288	58.832260	25.353010
4847.877358	-113.563408	59.884277	26.112801
4847.880686	-114.498528	60.059616	26.814144
4847.883997	-115.725883	60.001175	27.749271
4847.886924	-117.245476	60.819405	27.924606
4847.890239	-118.180595	61.170082	29.561075
4847.893572	-119.407951	62.105202	29.736412
4847.896900	-119.758614	62.748100	31.255991
4847.900241	-121.570427	63.683228	31.665108
4847.903571	-123.206886	64.735237	33.184685
4847.906905	-124.492699	65.611923	33.593803
4847.910234	-125.661598	66.254822	34.704266
4847.913572	-126.772057	67.599068	35.171829
4847.916925	-129.109863	68.008179	36.808300
4847.920235	-130.746338	69.235535	38.327877
4847.923564	-132.733490	69.819984	39.146111
4847.926899	-134.545288	70.755112	40.548801
4847.930239	-135.889557	72.099358	42.711277
4847.933564	-137.818237	72.917595	43.587959
4847.936899	-139.863831	73.794266	45.282875
4847.940283	-142.026306	74.670952	47.270016
4847.943573	-144.013428	75.664520	48.906487
4847.946898	-145.883698	76.716537	50.776737
4847.950237	-147.753937	77.827003	52.237873
4847.953567	-149.507294	79.288139	53.757450
4847.956897	-152.604919	80.164810	55.978374
4847.960260	-154.825836	81.216827	58.433079
4847.963563	-156.988312	82.268845	61.121563
4847.966894	-159.676788	83.496201	62.758034
4847.970226	-162.248383	85.074219	64.978958
4847.973567	-164.352417	87.061371	67.959671
4847.976897	-166.398010	87.470482	69.713028
4847.980227	-169.028046	88.756279	72.518410
4847.983562	-171.190521	89.516075	75.323792
4847.986895	-173.119232	91.386322	77.369370
4847.990232	-176.099945	93.139687	79.824074
4847.993564	-179.080658	94.542374	83.272354
4847.996894	-181.126251	95.945061	85.551727
4848.000227	-183.873169	97.581528	87.947983
4848.003557	-186.853882	99.276443	91.104027
4848.006926	-188.490356	100.679138	93.734070
4848.010234	-192.055511	102.257156	98.059029
4848.014829	-196.789612	105.530098	104.429581
4848.017770	-200.120972	107.400352	108.053185
4848.021085	-202.341919	108.744591	112.027466
4848.024422	-205.731720	110.322609	116.293976
4848.027773	-208.478668	112.485092	119.800697
4848.031223	-211.751617	114.822906	125.294563
4848.034480	-214.615417	116.751602	130.145523
4848.037737	-217.713013	118.621857	135.405609
4848.041075	-220.927521	120.784332	140.081238
4848.043974	-223.732910	122.420807	145.399765
4848.047333	-227.648743	124.700172	151.419632
4848.050645	-230.629456	126.395088	157.322617
4848.053979	-234.545288	128.557571	163.926941
4848.057333	-237.642914	130.661606	170.940384
4848.060673	-240.682068	133.642303	177.661591
4848.063999	-244.364136	134.694336	184.791931
4848.066881	-247.578613	136.798370	192.623611
4848.070220	-251.552887	139.077728	199.403275
4848.073552	-254.708954	141.298660	207.702499
4848.076883	-258.507904	143.285797	215.534195
4848.080221	-261.079498	144.805374	223.190536
4848.083553	-264.644653	147.084747	232.191116
4848.086883	-267.742249	149.714783	241.308578
4848.090224	-271.365875	151.175919	251.127426
4848.093547	-273.995911	152.870834	260.244873
4848.096882	-277.794861	154.565750	270.414398
4848.100212	-280.249573	156.494446	279.999420
4848.103553	-284.048523	158.540024	290.227356
4848.106882	-285.801880	160.410294	300.689056
4848.110213	-287.905914	162.046753	311.618378
4848.113546	-291.295746	163.507889	321.846283
4848.116881	-293.750427	165.261246	333.652252
4848.120207	-295.679138	167.131500	345.750427
4848.123547	-297.081848	168.826416	357.088837
4848.126936	-298.952087	169.995331	369.537689
4848.130214	-300.530121	171.924026	381.986542
4848.133569	-300.530121	173.385147	395.253632
4848.136875	-301.173004	174.670959	407.410278
4848.140208	-302.049683	175.781403	420.034485
4848.143540	-302.984802	176.541199	434.295166
4848.146888	-302.341919	177.827011	446.802460
4848.150212	-302.108124	178.294571	460.537140
4848.153547	-301.114563	179.288132	474.096436
4848.156875	-300.237885	180.398605	488.649323
4848.160207	-298.893616	179.989471	504.663361
4848.163546	-297.432495	180.047928	519.683838
4848.166872	-294.217987	180.515488	534.236755
4848.170203	-292.113983	179.463470	550.133850
4848.173544	-288.548798	179.755692	565.095886
4848.176881	-284.983643	177.827011	581.694397
4848.180209	-280.717133	176.950317	596.422607
4848.183543	-275.106354	175.080063	613.897766
4848.186871	-270.255402	173.385147	629.268860
4848.190209	-263.943329	171.631790	645.107544
4848.194856	-251.260681	165.904144	678.070740
4848.198173	-243.779663	163.098770	693.675659
4848.201057	-235.363525	159.066040	710.098816
4848.204400	-226.713623	155.559326	724.534790
4848.207803	-217.187012	151.059021	739.613708
4848.211147	-207.660431	146.675629	754.575684
4848.214505	-197.374054	142.058456	768.719482
4848.217720	-185.801849	136.681473	783.155518
4848.221067	-174.521912	131.304504	795.838135
4848.223972	-162.540619	124.524834	809.280579
4848.227296	-149.448853	118.738754	821.261841
4848.230623	-136.415527	113.127991	832.074219
4848.233965	-123.148460	106.874344	843.821777
4848.237328	-109.706017	100.912918	852.530151
4848.240655	-94.744003	94.016357	861.764465
4848.243983	-79.898895	87.704262	869.420898
4848.246867	-65.813560	80.807716	875.849792
4848.250201	-50.793098	73.677376	883.038574
4848.253532	-35.363533	66.547050	888.123413
4848.256903	-20.459965	59.416710	892.974365
4848.260196	-4.738163	53.279953	896.773315
4848.263531	10.223846	46.266510	898.818848
4848.266866	26.354765	40.071304	900.513794
4848.270196	41.316772	33.525421	901.858032
4848.273527	56.746349	26.278200	900.572205
4848.276869	72.000587	19.966103	898.818848
4848.280200	86.904152	13.478668	897.065491
4848.283526	101.223259	6.114553	893.909424
4848.286858	116.009941	-0.957335	890.110474
4848.290198	130.504379	-6.743424	885.025757
