time (s)	magX	magY	magZ
1965.665161	285.501434	-136.550552	143.412628
1965.668517	280.884277	-134.797195	138.795441
1965.671816	276.910004	-132.985397	133.710693
1965.675169	272.818817	-130.413788	130.087097
1965.678491	268.318542	-128.835770	125.645233
1965.683112	260.603729	-125.445938	116.761543
1965.686450	257.272369	-123.634125	112.144363
1965.689368	253.473389	-121.763878	109.631203
1965.692711	249.265350	-120.185860	106.007599
1965.696100	246.343079	-118.958504	102.325546
1965.699419	242.544128	-117.731148	98.877258
1965.702667	239.329620	-115.860901	95.312096
1965.706023	235.530701	-114.224426	91.630043
1965.708916	232.549988	-112.704857	89.058449
1965.712279	228.809479	-111.009941	86.603745
1965.715579	225.361206	-109.957916	82.571007
1965.718910	222.380463	-108.204559	79.648743
1965.722274	219.516663	-107.094101	76.434250
1965.725595	216.652832	-105.457634	74.037987
1965.728964	213.847473	-104.580948	71.466393
1965.731847	210.808289	-102.301582	69.245468
1965.735145	207.652252	-101.483337	66.381653
1965.738481	205.431335	-100.314430	64.336060
1965.741819	203.093506	-99.028641	61.939796
1965.745148	200.580353	-98.268852	61.180012
1965.748481	197.073639	-97.099945	58.549969
1965.751810	195.670959	-96.515495	56.621269
1965.755147	192.924011	-94.586792	54.692577
1965.758479	191.930450	-94.119225	53.815895
1965.761827	189.475739	-92.891876	52.530098
1965.765146	186.904144	-91.664520	51.010517
1965.768480	186.261261	-91.372299	49.198711
1965.771808	183.923431	-90.320282	49.198711
1965.775147	182.053192	-89.034485	47.912914
1965.778475	180.825836	-88.216255	46.276447
1965.781810	179.364716	-87.865578	45.224430
1965.785143	177.786682	-87.047348	43.529514
1965.788472	176.208649	-86.287552	42.243713
1965.791809	174.805969	-86.053772	41.600815
1965.795141	173.461731	-85.352425	41.717705
1965.798473	172.000580	-85.060196	40.665691
1965.801832	170.188782	-83.365288	39.087666
1965.805157	169.136749	-82.897720	38.035652
1965.808475	167.909393	-82.547050	37.100525
1965.811813	166.915833	-81.611923	36.691406
1965.815141	166.097595	-81.611923	36.516071
1965.818471	163.993561	-81.378143	35.522503
1965.821809	163.116882	-80.735245	35.405609
1965.825136	162.123322	-79.683228	34.412041
1965.828478	161.188202	-79.858566	34.061367
1965.831812	159.727051	-79.215668	33.535358
1965.835142	158.967255	-78.631210	32.249561
1965.838476	157.739899	-78.046761	31.898890
1965.841839	156.629456	-77.462303	31.197546
1965.845138	155.811218	-77.520752	31.255991
1965.848476	154.525421	-77.111633	29.794857
1965.851809	153.824066	-76.585625	29.093513
1965.855142	153.414978	-76.176506	28.041498
1965.858463	151.953827	-75.942726	27.807716
1965.861802	151.895386	-75.299828	27.340153
1965.865131	150.609589	-75.182930	25.995909
1965.869837	149.031570	-75.007599	25.879019
1965.872727	149.031570	-74.481590	24.827002
1965.875982	148.271774	-74.423149	25.294565
1965.879320	147.745758	-74.072472	25.469902
1965.882678	147.161316	-73.546463	25.002338
1965.886113	147.278198	-73.312683	24.417885
1965.889391	147.161316	-73.429573	24.534777
1965.892722	146.927521	-73.254242	24.885448
1965.896019	147.336639	-73.371132	24.008768
1965.899320	147.161316	-73.137352	24.300995
1965.902221	146.985962	-72.552895	24.359440
1965.905561	146.752197	-72.494446	24.067213
1965.908884	146.284637	-73.078903	24.593222
1965.912222	146.752197	-72.377556	24.885448
1965.915563	146.869080	-72.552895	25.002338
1965.918905	146.869080	-73.137352	24.242550
1965.922239	146.869080	-72.962013	25.353010
1965.925129	147.161316	-72.903564	25.177675
1965.928490	147.336639	-73.137352	24.827002
1965.931797	147.395081	-73.429573	24.885448
1965.935131	147.921097	-73.663353	25.060783
1965.938462	147.979553	-72.962013	25.879019
1965.941792	147.745758	-73.371132	26.171246
1965.945124	148.797791	-73.897133	25.879019
1965.948460	148.622437	-74.832260	26.288136
1965.951793	148.797791	-75.182930	26.346581
1965.955127	149.148453	-74.832260	26.405027
1965.958462	150.142029	-75.533607	27.106371
1965.961793	150.434265	-75.708946	26.872589
1965.965122	150.609589	-75.708946	27.690825
1965.968458	150.726471	-76.410286	27.398600
1965.971805	150.843384	-76.644073	27.340153
1965.975121	151.720032	-76.819412	27.690825
1965.978459	152.070740	-77.403862	27.924606
1965.981790	152.479828	-77.170082	28.041498
1965.985122	152.596710	-77.812973	28.625950
1965.988456	153.122742	-77.637642	29.268850
1965.991791	153.940979	-77.929871	29.385740
1965.995186	155.226776	-78.105209	29.385740
1965.998461	155.577454	-78.864990	30.203974
1966.001814	156.220337	-79.800117	30.613092
1966.005123	157.973694	-79.800117	30.437756
1966.008454	158.090576	-80.384567	31.898890
1966.011793	159.493286	-80.618355	32.015778
1966.015137	160.369965	-81.378143	32.892460
1966.018457	161.538849	-82.079491	33.769138
1966.021791	163.000000	-82.430161	33.827583
1966.025122	164.052032	-82.839272	34.996494
1966.028447	165.571594	-83.482178	35.171829
1966.031786	166.272949	-84.358856	36.223846
1966.035113	168.260071	-85.293976	37.158970
1966.038447	169.779663	-85.235535	38.269432
1966.041779	171.474579	-86.346001	39.496784
1966.045116	172.994171	-86.988899	40.899471
1966.048452	174.981293	-88.040916	42.126823
1966.051779	176.676208	-88.917595	43.880188
1966.055113	178.488007	-89.677383	44.347748
1966.059804	182.520752	-91.489189	46.977791
1966.062716	184.215668	-92.891876	48.555813
1966.065961	186.202820	-93.943893	50.542953
1966.069299	188.073059	-94.353012	51.419636
1966.072653	190.293976	-95.521919	53.114552
1966.075994	192.924011	-96.983055	55.277031
1966.079392	194.794281	-97.859734	56.738159
1966.082709	196.839844	-99.320869	58.959091
1966.086037	199.119232	-100.197548	59.777325
1966.089304	202.333710	-101.483337	62.465809
1966.092200	204.320862	-103.002922	63.868496
1966.095537	206.424896	-104.464058	66.440094
1966.098872	208.470490	-105.106956	68.544121
1966.102219	211.568085	-107.094101	70.180595
1966.105535	213.905914	-107.853882	72.109291
1966.108900	216.068390	-109.256569	74.388657
1966.112235	218.756866	-110.717712	76.784920
1966.115107	221.153137	-112.003510	78.888954
1966.118442	223.549377	-113.230865	81.343658
1966.121782	226.647003	-115.042671	84.382820
1966.125117	229.627716	-116.854469	86.837524
1966.128446	232.959076	-118.140274	89.292229
1966.131778	235.998260	-119.426064	91.513153
1966.135106	238.745178	-121.062538	95.136757
1966.138443	242.251892	-122.757454	98.760368
1966.141778	245.875488	-124.393921	101.507301
1966.145132	249.206909	-126.614853	105.072472
1966.148443	252.947388	-128.075974	109.631203
1966.151769	256.337250	-130.121567	113.313271
1966.155111	260.369965	-131.933380	117.462883
1966.158437	263.467560	-133.277618	121.612511
1966.161770	267.149628	-135.440094	126.112793
1966.165104	271.182343	-137.602570	132.015778
1966.168441	275.273499	-139.063705	136.399185
1966.171768	279.715363	-141.401520	142.185272
1966.175108	284.098755	-143.564011	147.854477
1966.178437	288.423706	-145.200470	154.458801
1966.181770	293.099335	-147.888947	159.952667
1966.185107	297.482758	-150.285217	165.914078
1966.188435	301.866150	-152.213913	173.161301
1966.191792	306.191101	-154.434830	180.057861
1966.195106	310.983612	-157.357101	187.480423
1966.198439	315.893036	-159.052017	194.493866
1966.201765	320.977783	-161.623611	201.331970
1966.205099	325.419647	-163.844528	209.689651
1966.208435	330.855042	-166.825256	217.053757
1966.211764	335.939819	-169.221512	226.463470
1966.215100	340.732300	-171.909988	235.347168
1966.218432	345.933960	-175.007599	241.951508
1966.221764	350.843353	-177.462311	251.653412
1966.225100	355.986542	-180.150787	260.829346
1966.228439	360.428406	-182.780838	270.063690
1966.231779	365.746918	-185.644653	280.759216
1966.235096	370.714783	-188.625366	291.337799
1966.238428	376.325531	-191.430740	301.916412
1966.241763	380.767395	-194.177673	312.261261
1966.245090	385.793671	-196.690826	324.125671
1966.248427	391.229095	-198.911743	335.580963
1966.252720	400.638824	-205.632950	360.887787
1966.256016	405.314453	-207.795441	373.628876
1966.259278	410.048492	-210.191711	387.363525
1966.262644	414.841034	-212.237289	401.741089
1966.265933	419.458221	-215.334900	416.761536
1966.269300	424.542938	-218.374039	432.541779
1966.272646	428.984772	-220.127426	447.562256
1966.276030	433.075989	-222.874344	464.452972
1966.279360	436.641174	-225.387482	481.402100
1966.282223	440.790741	-227.666855	499.695465
1966.285526	445.407959	-229.946243	517.872009
1966.288854	448.797791	-231.582703	536.399170
1966.292185	452.772034	-233.569839	555.452393
1966.295525	455.051422	-235.498535	576.726501
1966.298859	457.681458	-236.375214	597.123901
1966.302183	460.253052	-238.245468	617.638245
1966.305520	461.889557	-239.706589	640.315063
1966.308425	463.526001	-240.992416	662.056702
1966.311755	464.753326	-242.219757	684.090637
1966.315088	464.344269	-243.096436	707.351868
1966.318421	463.876678	-243.213333	730.204041
1966.321757	463.526001	-243.739319	753.465271
1966.325140	462.006409	-243.856216	777.836975
1966.328425	460.194641	-243.680893	800.279968
1966.331757	457.506134	-243.973114	824.534790
1966.335086	453.999420	-243.271759	848.906494
1966.338421	449.966675	-242.278198	874.213379
1966.341754	445.407959	-241.226181	897.708374
1966.345085	439.914062	-240.057281	921.787903
1966.348451	433.017517	-238.187027	945.750488
1966.351754	426.471649	-236.492111	970.531311
1966.355083	418.756866	-234.329636	993.383484
1966.358419	409.756287	-232.167160	1016.118713
1966.361756	401.340149	-229.303345	1038.327881
1966.365083	391.112213	-225.855042	1059.426636
1966.368419	380.592041	-223.166565	1080.057861
1966.371754	367.558746	-218.549377	1100.689087
1966.375081	355.752777	-214.458206	1120.443481
1966.378412	342.894775	-209.899475	1140.724121
1966.381751	329.101685	-205.106964	1158.082397
1966.385086	314.022797	-199.846863	1175.265259
1966.388410	298.943909	-194.060791	1192.156006
1966.391760	283.222107	-187.398010	1208.053101
1966.395090	266.097595	-181.027466	1222.372192
1966.398409	249.499115	-174.481583	1236.632935
1966.401749	231.907074	-166.474579	1248.497314
1966.405085	212.912323	-158.000000	1261.238403
1966.408412	193.800690	-149.700775	1270.765015
1966.411745	173.929291	-141.635300	1279.765625
1966.415080	152.830505	-132.284058	1287.714233
1966.418415	131.497955	-122.465225	1294.143188
1966.421748	111.042084	-112.237289	1297.825195
1966.425081	89.475746	-102.418465	1302.384033
1966.428409	66.915840	-92.132088	1303.552856
1966.431743	44.239044	-81.085915	1305.773682
1966.435084	21.854473	-70.741089	1303.845093
1966.438413	-0.822325	-59.461136	1301.098145
1966.443097	-46.468147	-38.011688	1291.045532
1966.446002	-68.677376	-26.556398	1283.447632
1966.449343	-90.828171	-15.393337	1275.089966
1966.452592	-112.803627	-4.171829	1264.102295
1966.455925	-134.545288	7.283460	1252.588501
1966.459262	-154.884277	18.154297	1241.016235
1966.462612	-175.924591	28.090006	1227.807739
1966.466023	-195.562256	38.434837	1212.553467
1966.468862	-214.907654	48.370544	1198.000488
1966.472188	-233.201050	57.897133	1182.337158
1966.475522	-250.617767	68.066628	1164.803589
1966.478847	-267.742249	76.891876	1147.503784
1966.482158	-283.756287	85.483345	1128.625854
1966.485500	-299.068970	93.607246	1109.923340
1966.488832	-314.089417	101.380478	1090.227295
1966.492167	-327.999420	109.212151	1070.648071
1966.495072	-341.149628	116.108711	1051.244263
1966.498407	-354.066040	123.706612	1030.729980
1966.501739	-364.936890	130.194046	1009.046814
1966.505067	-375.632385	135.863235	988.824707
1966.508419	-385.977234	142.116882	967.258301
1966.511734	-394.685547	147.318527	945.516663
1966.515066	-403.686157	152.403275	924.242554
1966.518399	-411.810059	157.371124	903.202209
1966.521738	-418.355957	162.689651	882.045044
1966.525074	-424.726501	166.663940	861.004700
1966.528418	-430.687927	170.462891	840.548889
1966.531736	-436.006470	174.437164	819.216309
1966.535066	-440.389832	177.417877	797.942200
1966.538400	-444.071869	180.281708	777.194092
1966.541739	-447.344849	183.729980	756.562866
1966.545071	-449.858002	186.243134	735.405640
1966.548402	-451.845123	189.048508	716.235535
1966.551769	-453.773834	191.561661	695.779663
1966.555069	-455.001160	192.555237	676.317383
1966.558403	-454.475159	194.016373	654.341980
1966.561733	-455.877838	195.360611	636.223877
1966.565080	-455.468750	197.113968	616.703125
1966.568397	-455.059631	197.639969	598.643494
1966.571733	-453.715393	198.049103	579.940979
1966.575062	-452.371124	198.458206	561.647644
1966.578400	-451.202209	198.691986	544.289307
1966.581733	-448.572174	198.984222	526.697266
1966.585062	-446.234375	198.282883	510.157227
1966.588395	-443.487457	198.458206	494.026306
1966.591723	-440.389832	197.523087	477.310944
1966.595080	-437.350647	196.529510	461.939789
1966.598408	-434.545288	195.360611	446.919342
1966.601724	-430.571045	194.659256	432.541779
1966.605059	-426.830536	193.373459	418.631775
1966.608407	-422.680908	192.379898	405.072479
1966.611726	-418.648163	190.684982	391.980713
1966.615060	-415.082977	189.048508	379.298065
1966.618397	-410.524292	187.470490	367.375214
1966.621726	-406.608459	185.950897	355.393921
1966.625059	-401.815887	183.963760	344.990631
1966.628397	-398.601410	182.151947	334.061371
1966.633069	-389.191742	178.645233	312.787262
1966.635930	-385.509644	175.898300	304.254242
1966.639373	-380.308014	174.963181	293.383392
1966.642688	-376.041504	172.566925	284.265930
1966.645941	-371.365875	170.229111	275.849792
1966.649237	-367.157806	168.241959	267.784332
1966.652606	-362.423737	166.313263	260.011108
1966.655926	-358.624786	164.735245	251.828751
1966.659260	-354.182953	163.098770	243.704849
1966.662174	-350.267120	161.579193	236.866745
1966.665521	-346.000580	159.533600	229.444183
1966.668839	-341.441864	157.780243	222.255402
1966.672212	-336.415558	155.500870	215.534195
1966.675483	-332.324371	153.513733	209.046753
1966.678808	-327.824066	151.818817	203.085342
1966.682187	-323.206909	150.357681	195.428986
1966.685483	-319.466400	148.428986	189.701340
1966.688384	-314.966125	146.967865	183.097015
1966.691717	-310.290497	144.513153	177.836945
1966.695070	-305.965515	143.402695	172.343079
1966.698384	-301.348328	141.707764	167.199890
1966.701720	-297.315613	139.895966	162.056702
1966.705048	-293.575104	137.967270	156.270599
1966.708384	-289.308594	136.564575	151.068954
1966.711713	-285.100525	134.694336	147.094681
1966.715049	-282.061371	132.882538	142.419052
1966.718380	-277.736420	131.596725	137.977203
1966.721716	-273.820587	129.784927	133.827591
1966.725076	-270.372314	128.440674	129.619522
1966.728386	-266.573364	126.687317	126.288139
1966.731710	-263.125061	124.933952	122.606071
1966.735048	-260.085937	123.122147	118.982468
1966.738397	-256.637665	121.777908	114.891289
1966.741713	-253.715393	120.199875	111.559906
1966.745049	-251.202240	119.147865	109.397423
1966.748381	-247.870850	117.745178	106.358261
1966.751712	-244.890137	116.634720	103.669785
1966.755047	-242.902985	114.647575	100.805962
1966.758382	-239.746948	114.063110	98.526588
1966.761714	-237.000000	112.601990	96.714790
1966.765041	-234.019287	111.257736	94.026299
1966.768404	-231.798370	110.205727	91.630043
1966.771711	-229.986542	109.270599	89.935120
1966.775045	-227.005829	108.335480	87.129745
1966.778371	-224.784912	107.225021	85.025711
1966.781720	-222.680878	106.465225	84.090591
1966.785040	-221.336639	105.062538	81.869667
1966.788377	-218.823517	104.302742	79.940964
1966.791708	-217.187012	103.075394	78.947403
1966.795041	-214.673889	102.374046	76.901810
1966.798373	-213.621857	101.614258	76.142021
1966.801711	-211.693176	100.328461	74.271767
1966.805045	-210.173584	99.685562	73.044418
1966.808376	-207.718872	98.925774	71.057274
1966.811754	-205.614868	98.399765	69.829918
1966.815044	-203.803040	97.464638	67.901230
1966.818373	-202.634125	96.938637	66.381653
1966.823002	-198.776733	95.185265	63.751606
1966.825939	-197.900055	94.074806	62.991814
1966.829339	-196.380463	93.431908	60.712448
1966.832637	-194.685547	93.022797	58.900642
1966.836002	-192.990631	92.496780	57.322620
1966.839218	-190.828186	91.795441	57.264172
1966.842554	-189.600830	91.444763	55.803036
1966.845895	-188.139679	91.269432	54.692577
1966.849248	-187.672119	90.392746	54.225014
1966.852120	-186.269440	89.516075	53.582111
1966.855501	-184.340729	88.931618	52.471653
1966.858823	-183.639374	88.931618	51.010517
1966.862146	-182.412018	87.879601	50.016949
1966.865453	-181.126251	87.879601	49.198711
1966.868807	-180.249573	87.295151	48.789597
1966.872116	-179.431305	87.002922	48.029804
1966.875460	-178.262421	87.119812	46.919346
1966.878370	-177.970184	86.535355	46.744007
1966.881701	-177.035065	85.717125	46.627117
1966.885030	-175.866150	86.067795	46.451782
1966.888369	-175.632385	85.366447	45.107540
1966.891700	-175.106384	85.074219	45.984219
1966.895031	-174.872589	84.781998	45.399765
1966.898379	-174.112793	84.781998	44.698421
1966.901703	-173.703674	84.255989	44.113968
1966.905031	-173.119232	83.905312	43.587959
1966.908362	-172.826996	84.197548	44.406197
1966.911697	-172.476318	83.613091	43.938633
1966.915027	-172.476318	83.028641	43.821743
1966.918397	-172.008759	83.145531	42.769722
1966.921708	-171.599640	83.379311	42.477497
1966.925029	-171.365875	83.262421	43.120399
1966.928361	-171.073639	83.087082	43.821743
1966.931698	-171.365875	83.087082	43.120399
1966.935032	-171.190521	83.145531	43.704849
1966.938363	-170.722961	82.677963	42.711277
1966.941711	-170.138519	82.911743	42.886612
1966.945031	-170.547638	82.794853	42.828167
1966.948358	-169.612518	82.444183	42.886612
1966.951693	-169.846283	82.444183	42.477497
1966.955023	-170.489197	82.970192	43.295734
1966.958364	-169.963196	83.437752	42.302158
1966.961687	-170.080078	83.145531	42.535942
1966.965023	-170.430756	82.911743	42.185268
1966.968357	-170.489197	83.203972	42.769722
1966.971690	-170.781403	83.613091	42.535942
1966.975022	-170.547638	84.022202	42.302158
1966.978357	-170.898315	83.846870	42.945057
1966.981688	-171.599640	83.905312	42.711277
1966.985071	-171.482758	84.080650	42.769722
1966.988353	-171.833435	84.431328	43.354179
1966.991687	-172.008759	83.963760	42.594387
1966.995023	-172.534790	84.548218	42.828167
1966.998358	-173.294556	84.898888	43.704849
1967.001689	-173.528351	85.249557	42.945057
1967.005018	-174.112793	85.775566	43.529514
1967.008355	-173.528351	86.126236	43.646404
1967.012979	-175.807709	86.593803	45.458210
1967.015936	-176.216827	87.178261	46.276447
1967.019231	-177.970184	87.645821	46.744007
1967.022667	-178.320862	87.996490	48.029804
1967.025942	-179.197540	88.171829	49.198711
1967.029220	-180.132690	88.522499	49.724720
1967.032539	-181.126251	89.106949	49.315601
1967.035881	-181.886017	89.632965	50.192284
1967.039213	-183.873169	90.158966	51.010517
1967.042121	-184.749847	90.918762	51.828751
1967.045446	-186.035645	91.152542	52.880768
1967.048799	-186.912323	91.970779	53.699005
1967.052132	-188.315002	92.789009	54.400349
1967.055498	-190.009918	93.782578	55.335472
1967.058802	-191.061951	94.425484	56.796608
1967.062106	-193.165985	95.243713	58.140854
1967.065011	-194.510223	96.354179	59.601986
1967.068344	-195.679138	97.172417	60.186440
1967.071689	-196.731140	97.639977	61.413792
1967.075015	-198.426056	98.691994	61.939796
1967.078344	-200.062531	98.984215	63.926941
1967.081678	-202.458801	99.451782	65.446518
1967.085012	-203.803040	100.562241	66.849213
1967.088346	-205.322632	101.497368	67.024544
1967.091681	-206.900635	103.016945	68.777908
1967.095015	-208.069550	103.309174	70.531265
1967.098347	-210.524261	104.010513	71.992401
1967.101674	-211.810028	105.120987	72.927528
1967.105015	-213.446533	106.114548	74.739326
