time (s)	magX	magY	magZ
4906.454380	133.718887	-57.298653	44.113968
4906.457745	133.660431	-58.116890	45.049095
4906.461042	135.764465	-58.292229	46.276447
4906.464379	136.933380	-58.467560	47.562244
4906.467713	137.693176	-59.285805	48.497368
4906.471051	138.686737	-60.104034	49.490940
4906.474376	141.024551	-60.980713	50.075394
4906.477709	142.661026	-61.448280	51.887199
4906.481044	143.888367	-61.857399	52.763878
4906.484379	145.817062	-62.850967	54.400349
4906.487712	147.570435	-62.967857	54.867908
4906.491041	148.973114	-64.019875	57.030392
4906.494373	150.609589	-64.954994	57.965515
4906.497708	152.421387	-65.071884	59.309761
4906.501061	155.051422	-65.890121	61.355347
4906.504378	156.629456	-66.533020	63.459377
4906.507707	159.084167	-66.942139	65.212738
4906.511043	160.954407	-67.409698	67.316772
4906.514373	163.642883	-68.695503	68.777908
4906.517713	166.156067	-69.279961	71.349503
4906.521043	168.786102	-70.156631	74.213326
4906.525674	173.812378	-72.026886	80.233200
4906.528559	176.676208	-73.195793	81.869667
4906.531949	179.306244	-73.955582	84.675041
4906.535246	181.819397	-75.007599	87.655754
4906.538634	184.449432	-76.234947	91.220917
4906.541971	187.079498	-76.936302	94.376976
4906.544902	190.410889	-78.046761	98.234367
4906.548545	193.157806	-79.566338	101.565750
4906.551464	196.080078	-80.384567	105.423141
4906.554794	198.826996	-81.670372	109.046753
4906.558129	202.392181	-82.897720	113.137932
4906.561459	204.729980	-84.709526	115.884865
4906.564800	208.002930	-86.346001	120.911171
4906.568130	211.100525	-87.690239	124.417885
4906.571478	214.139679	-89.034485	129.151947
4906.574394	217.061951	-90.729401	133.827591
4906.577705	219.458221	-92.248978	138.444763
4906.581031	223.607819	-93.359444	142.126816
4906.584373	225.770294	-94.820572	146.276443
4906.587722	228.692566	-96.573929	151.536530
4906.591027	231.673279	-97.742836	156.387497
4906.594368	235.530701	-99.028641	161.238449
4906.597702	238.628296	-100.372879	166.498535
4906.601032	241.667450	-102.301582	171.641724
4906.604363	244.180603	-103.645821	177.661591
4906.607698	247.511993	-104.405609	183.506134
4906.611037	251.077148	-106.684975	188.649338
4906.614361	254.700745	-108.263008	195.838104
4906.617699	257.798370	-109.548805	202.500885
4906.621026	260.895966	-110.951492	209.631210
4906.624366	264.694916	-111.945061	216.936890
4906.627696	268.260071	-112.704857	224.242554
4906.631041	271.591461	-114.808891	231.957321
4906.634363	275.273499	-116.211578	240.607254
4906.637697	278.254242	-117.380486	249.374039
4906.641028	282.520752	-117.964928	258.900665
4906.644364	285.735229	-119.309181	268.368774
4906.647693	289.709503	-120.244308	277.135590
4906.651060	293.157776	-121.062538	287.246643
4906.654361	296.722961	-121.763878	298.175903
4906.657692	300.931030	-122.640572	310.624786
4906.661022	303.794861	-123.809479	321.378723
4906.664360	306.366425	-123.692581	333.593811
4906.667691	309.288696	-124.744598	346.393341
4906.671028	311.568085	-125.913513	359.134430
4906.674388	314.957916	-126.088837	372.401520
4906.677687	317.003510	-126.907074	385.434814
4906.681024	318.581512	-127.257751	399.286377
4906.684359	320.802429	-127.491531	412.962616
4906.687710	322.088257	-128.485107	427.690826
4906.691020	322.906494	-128.485107	441.834564
4906.694358	323.958496	-129.186447	456.679718
4906.697686	324.192291	-129.361786	470.940399
4906.701024	324.250702	-129.244888	486.779053
4906.705305	323.315582	-129.361786	516.118713
4906.708648	322.555817	-129.537109	531.139160
4906.711961	320.919342	-129.654007	546.218018
4906.715202	317.997070	-129.361786	561.530701
4906.718577	316.243713	-129.127991	575.031555
4906.721861	313.555237	-127.725311	590.578064
4906.725221	310.223846	-127.842194	606.066040
4906.728581	307.476929	-126.731735	621.437195
4906.731489	302.801270	-126.205719	634.879639
4906.734799	298.359436	-124.627701	650.484558
4906.738126	293.216248	-123.049683	665.329651
4906.741441	287.605499	-120.127411	679.473389
4906.744775	281.527191	-117.964928	693.324951
4906.748150	274.981293	-115.451782	707.176514
4906.751446	267.850983	-112.763290	721.612488
4906.754347	260.895966	-108.613678	734.879639
4906.757682	253.005829	-105.165405	747.503845
4906.761027	244.122162	-101.366455	759.835754
4906.764345	234.829315	-97.216843	773.219788
4906.767683	225.068970	-92.482758	784.967285
4906.771019	214.841034	-86.930458	796.714783
4906.774344	204.087097	-81.670372	806.942688
4906.777681	192.222687	-75.650497	816.586243
4906.781008	179.656921	-69.981300	825.879089
4906.784356	167.266510	-63.318527	835.288757
4906.787685	153.824066	-56.363525	843.704834
4906.791045	140.030975	-49.057861	850.192322
4906.794348	125.419640	-42.687317	856.621338
4906.797679	111.158974	-35.264755	861.063171
4906.801012	96.489189	-27.783754	864.336060
4906.804368	81.118057	-20.068966	867.901306
4906.807676	65.045593	-12.763296	870.297485
4906.811012	49.674461	-5.808299	870.472900
4906.814349	34.478668	1.263589	868.836365
4906.817681	17.821743	9.913501	868.544189
4906.821013	2.216833	16.459381	865.095886
4906.824345	-14.030975	23.881941	863.167175
4906.827677	-29.577438	30.310930	858.783813
4906.831009	-45.007011	36.739914	853.114563
4906.834368	-60.144356	43.344246	847.679199
4906.837670	-75.047920	49.188782	840.256592
4906.841003	-89.425484	54.448860	832.483337
4906.844335	-104.387489	60.176506	824.593201
4906.847691	-117.187019	66.021042	815.066711
4906.851009	-130.921692	70.813560	807.118103
4906.854341	-144.013428	75.547630	795.545959
4906.857675	-156.170074	79.989479	784.441284
4906.861008	-168.151367	84.665108	773.921143
4906.864338	-179.489777	88.756279	761.939819
4906.867672	-190.419067	92.672119	750.016968
4906.871004	-200.237885	97.230858	737.100586
4906.874337	-210.524261	100.620689	723.599670
4906.877675	-218.940369	103.952072	711.676819
4906.881007	-227.940979	107.867912	697.708374
4906.885685	-242.669220	114.530685	669.596191
4906.888593	-249.624207	117.394501	653.582153
4906.891986	-256.286957	120.842781	640.198181
4906.895278	-262.715973	123.589714	625.879089
4906.898525	-266.924042	127.154877	611.033936
4906.901850	-272.359436	129.551147	595.370605
4906.905218	-277.035065	132.765640	581.051453
4906.908535	-281.301575	134.928116	565.388123
4906.911878	-285.100525	136.915253	550.075378
4906.914798	-287.672119	138.434830	534.938049
4906.918112	-290.419067	141.123306	519.917603
4906.921468	-292.815308	142.058456	504.312683
4906.924761	-293.808899	143.636475	489.467560
4906.928089	-295.620697	144.162476	473.278168
4906.931427	-296.555817	145.740509	458.608429
4906.934796	-297.257172	146.208069	443.880157
4906.937662	-296.731140	146.208069	430.379333
4906.940999	-296.322052	146.558731	416.177063
4906.944332	-295.796021	146.967865	402.208649
4906.947676	-295.737579	147.026291	388.064880
4906.950990	-294.451782	146.266510	375.615997
4906.954326	-292.698425	145.214493	363.400909
4906.957664	-291.237305	145.039154	349.958496
4906.960992	-289.893066	142.876678	339.379883
4906.964328	-287.029236	142.935120	327.106354
4906.967658	-285.568115	141.123306	316.118622
4906.971005	-282.879608	139.779068	305.247833
4906.974330	-280.834015	138.025711	295.721222
4906.977684	-279.255981	136.272354	286.603760
4906.980996	-275.866150	134.460556	276.960266
4906.984324	-273.586792	132.531860	267.375214
4906.987659	-270.255402	131.304504	258.316193
4906.990992	-268.443604	129.434250	249.724731
4906.994325	-264.936890	127.154877	241.483932
4906.997659	-262.715973	125.401512	234.295135
4907.000997	-259.559906	123.005249	226.814133
4907.004325	-256.637665	120.901222	219.917587
4907.007655	-253.773804	119.615433	213.722382
4907.010994	-250.267120	118.212738	206.533615
4907.014323	-246.409698	116.693153	200.046173
4907.017660	-243.838104	114.296906	194.026306
4907.020999	-240.974304	113.186440	188.123322
4907.024319	-237.876678	111.140854	182.921677
4907.027659	-234.720642	109.679718	176.843369
4907.030990	-231.739929	107.984802	171.057266
4907.034324	-227.824066	107.049675	165.271179
4907.037679	-224.843353	105.120987	159.952667
4907.040989	-221.745758	103.835182	154.809464
4907.044323	-218.823517	102.607826	148.555817
4907.047652	-214.907654	100.737579	144.639984
4907.051027	-212.160736	99.977791	139.613678
4907.054320	-208.770905	98.633545	134.412033
4907.057653	-205.790192	97.406197	129.619522
4907.060983	-202.575684	95.886612	125.586792
4907.064348	-198.659851	95.302155	120.911171
4907.068997	-191.821747	92.029221	112.319695
4907.072330	-189.308594	90.568092	108.403862
4907.075244	-186.035645	89.574516	106.124481
4907.078596	-182.996490	88.171829	101.624199
4907.081877	-179.898895	87.061371	97.357681
4907.085164	-177.035065	85.775566	93.909409
4907.088507	-174.405029	85.015778	91.863823
4907.091854	-171.658112	83.671532	88.649323
4907.095195	-168.911163	82.093513	84.967270
4907.098079	-166.281128	81.158386	82.629456
4907.101429	-164.293976	80.164810	80.116302
4907.104762	-161.956177	78.820572	77.603157
4907.108161	-159.501465	77.651657	74.388657
4907.111405	-156.871429	76.015190	72.869080
4907.114734	-155.468719	75.547630	71.291061
4907.118072	-152.955566	74.495613	68.602570
4907.120985	-151.026886	73.092926	67.199883
4907.124317	-149.624207	71.690239	65.095848
4907.127641	-147.461700	70.988892	64.569839
4907.130978	-146.409698	70.170654	62.407360
4907.134312	-144.364105	69.410873	60.653999
4907.137641	-142.552307	68.358849	59.718876
4907.140975	-140.974274	67.599068	58.082405
4907.144309	-139.104034	66.605492	56.621269
4907.147640	-137.993561	64.910583	55.686146
4907.150984	-136.123322	63.683228	54.575687
4907.154311	-134.311523	63.157219	52.997658
4907.157639	-133.551727	62.572769	52.179424
4907.160974	-132.032135	61.754532	51.068962
4907.164325	-130.454132	61.579193	50.250729
4907.167642	-129.109863	60.527176	48.497368
4907.170968	-127.531853	60.527176	47.503799
4907.174306	-125.953835	59.592049	46.977791
4907.177643	-125.077156	59.358269	46.042664
4907.180968	-123.616020	58.656929	44.639977
4907.184311	-122.388664	58.130913	43.295734
4907.187639	-120.401512	57.546463	42.652832
4907.190975	-119.057274	56.669785	41.191700
4907.194328	-117.362358	56.143776	41.425480
4907.197640	-116.427238	55.325539	39.263004
4907.200971	-115.375221	55.500877	38.795441
4907.204306	-114.206322	54.741089	37.509644
4907.207640	-113.037407	54.390411	36.983635
4907.210969	-111.693153	53.630623	35.931618
4907.214299	-110.582695	53.455292	34.645821
4907.217641	-109.296913	53.338394	33.360023
4907.220970	-108.946220	53.279953	33.360023
4907.224323	-108.361778	51.935707	32.834015
4907.227635	-106.666862	51.643486	31.782000
4907.230966	-105.673286	51.760376	31.548218
4907.234304	-104.387489	51.643486	30.379311
4907.237660	-103.277031	51.117477	30.379311
4907.240971	-102.575684	50.591469	29.561075
4907.244295	-101.991234	50.357689	29.151958
4907.247637	-101.874336	49.831680	28.918177
4907.252261	-100.822327	48.838104	27.983051
4907.255178	-99.770309	48.838104	27.398600
4907.258607	-99.711861	48.487434	26.872589
4907.261902	-98.718300	48.195206	26.814144
4907.265220	-98.426071	47.727646	26.638807
4907.268520	-97.490944	47.669197	27.164816
4907.271820	-97.198715	47.026299	26.521917
4907.275157	-96.848045	47.260086	26.521917
4907.278506	-96.497368	47.143188	26.697252
4907.281428	-96.322037	46.558739	25.703682
4907.284742	-95.679131	46.208069	26.638807
4907.288081	-96.205139	46.324959	26.112801
4907.291418	-95.737579	46.675629	26.229691
4907.294772	-95.737579	46.032730	26.872589
4907.298051	-95.503792	45.974289	26.405027
4907.301389	-95.094681	45.740501	25.937464
4907.304295	-95.270012	45.974289	25.937464
4907.307621	-94.919350	45.565163	26.521917
4907.310958	-94.042656	46.266510	25.645237
4907.314291	-94.451782	46.208069	26.054354
4907.317624	-93.925774	46.091179	26.112801
4907.320962	-93.458214	45.506721	25.119228
4907.324296	-93.107536	45.857391	25.937464
4907.327620	-93.458214	45.565163	25.411455
4907.330955	-93.165985	45.623611	24.885448
4907.334292	-92.698418	45.506721	25.703682
4907.337625	-92.815315	45.915840	25.469902
4907.340955	-92.990646	46.208069	25.528347
4907.344291	-92.464638	46.324959	24.885448
4907.347702	-92.815315	45.798950	24.242550
4907.350954	-92.464638	45.740501	24.125658
4907.354324	-92.347755	46.149620	23.950323
4907.357629	-92.230858	46.266510	24.651667
4907.360953	-92.055527	45.682053	24.651667
4907.364287	-92.055527	45.857391	24.067213
4907.367642	-92.055527	46.032730	23.599651
4907.370950	-92.055527	46.500290	23.774986
4907.374288	-91.997078	46.383400	24.476330
4907.377621	-92.055527	46.558739	24.300995
4907.380975	-92.523087	46.850967	24.008768
4907.384283	-92.698418	46.850967	24.885448
4907.387618	-93.165985	46.909409	24.943893
4907.390951	-93.399765	46.909409	25.002338
4907.394282	-93.984222	46.734077	25.411455
4907.397619	-94.334892	47.493866	26.521917
4907.400951	-94.393333	48.019875	26.054354
4907.404288	-95.153130	47.902985	26.054354
4907.407622	-95.503792	48.253654	26.521917
4907.410949	-96.205139	48.721214	27.047926
4907.414301	-96.731148	48.838104	27.047926
4907.417617	-97.724724	49.071892	27.106371
4907.420947	-98.542953	48.954994	27.866161
4907.424308	-99.361191	49.481003	28.976624
4907.427616	-100.004089	50.240791	28.625950
4907.432239	-101.699005	50.708359	30.554647
4907.435163	-102.341904	51.117477	30.905319
4907.438483	-103.160141	50.708359	31.898890
4907.441900	-103.803040	51.701927	31.782000
4907.445206	-104.387489	51.760376	32.424896
4907.448492	-105.614838	52.987724	32.717125
4907.451792	-105.848625	53.046173	33.067795
4907.455131	-106.316185	53.104614	33.126240
4907.458481	-107.251305	53.338394	33.126240
4907.461365	-108.186440	53.981293	34.412041
4907.464729	-109.180016	54.390411	34.528931
4907.468085	-109.121559	55.500877	35.288719
4907.471391	-110.874931	55.909996	35.580948
4907.474763	-110.991814	56.494446	35.990063
4907.478040	-112.160713	56.786674	36.808300
4907.481369	-112.628288	57.195793	37.392754
4907.484276	-113.329628	58.656929	37.918758
4907.487610	-114.206322	58.656929	38.327877
4907.490944	-115.141441	59.884277	38.444767
4907.494274	-115.901237	60.877846	39.496784
4907.497608	-117.245476	61.403862	40.256573
4907.500942	-118.239052	62.338982	41.250145
4907.504269	-119.232613	62.631210	41.308590
4907.507608	-120.401512	63.449440	42.419052
4907.510964	-122.037987	64.033897	43.763298
4907.514269	-123.265343	65.144363	44.581532
4907.517607	-124.609596	66.254822	45.633549
4907.520942	-126.012276	66.897720	46.860901
4907.524275	-128.116302	68.183517	47.796024
4907.527614	-128.934540	68.417297	49.724720
4907.530943	-130.337219	69.644653	50.893627
4907.534272	-132.265930	70.404442	52.763878
4907.537608	-133.785522	72.099358	54.225014
4907.540936	-136.240204	72.450027	54.926357
4907.544270	-137.818237	73.443596	57.205730
4907.547607	-139.571594	74.554062	58.433079
4907.550942	-141.558716	74.787842	60.829338
4907.554289	-143.721222	76.482758	63.693157
4907.557600	-145.766815	77.184097	65.563408
4907.560937	-148.221497	78.645233	67.842781
4907.564268	-150.676208	80.106369	69.946815
4907.567605	-152.604919	81.158386	71.933952
4907.570933	-154.767395	81.976624	74.563995
4907.574270	-157.397430	83.613091	77.194038
4907.577601	-159.384583	84.431328	79.648743
4907.580929	-162.365295	85.892456	81.518997
4907.584271	-164.936890	86.535355	84.850380
4907.587598	-166.281128	88.347168	86.779076
4907.590926	-169.028046	90.100525	89.876678
4907.594281	-171.132080	90.918762	92.565163
4907.597602	-173.820557	92.964348	95.428993
4907.600931	-176.041504	94.367035	98.117477
4907.604270	-177.911743	95.828171	100.513733
4907.607598	-180.249573	97.347748	103.319107
4907.612225	-184.691406	101.088249	109.806549
4907.615141	-187.321442	103.250732	112.904152
4907.618476	-189.951477	105.296318	116.644653
4907.621872	-192.289307	106.815895	120.268257
4907.625182	-195.153107	108.393921	124.943886
4907.628498	-197.841614	110.673286	128.509064
4907.631772	-200.413208	112.835770	132.483337
4907.635111	-202.458801	114.589127	136.165405
4907.638440	-205.381073	116.167160	141.133255
4907.641368	-207.601990	118.855637	145.633545
4907.644683	-210.874908	121.076569	150.601395
4907.648042	-213.388092	122.596138	155.686157
4907.651382	-216.427246	124.758621	160.595566
4907.654702	-219.407928	127.739326	166.732315
4907.658022	-221.979553	129.784927	172.226181
4907.661350	-225.427826	132.005844	179.414963
4907.664255	-227.707184	133.934540	186.603729
4907.667591	-231.038574	135.804794	193.324951
4907.670928	-233.668610	138.376389	200.104614
4907.674258	-236.766235	139.720627	207.001175
4907.677592	-239.805359	142.000000	215.592636
4907.680927	-243.136780	144.396255	223.424301
4907.684291	-245.825256	145.915833	231.197540
4907.687592	-248.396851	148.954987	240.198120
4907.690922	-250.793121	150.474579	248.906479
4907.694252	-254.066040	152.403275	258.199310
4907.697586	-255.819397	154.448853	267.082977
4907.700920	-258.566345	156.669769	277.310944
4907.704253	-261.780853	158.481598	287.714203
4907.707584	-264.527771	160.059616	297.357697
4907.710917	-266.339569	162.397430	308.579193
4907.714301	-268.502045	164.676788	319.566925
4907.717582	-269.028046	166.254822	329.736420
4907.720924	-271.248993	167.715942	341.133240
4907.724255	-272.593231	169.644653	352.004089
4907.727596	-274.054382	170.872009	364.160706
4907.730920	-274.054382	173.151367	376.668030
4907.734252	-274.814148	175.489182	388.006439
4907.737587	-275.573914	176.891876	399.461700
4907.740916	-274.872589	178.703690	411.618378
4907.744248	-274.989502	179.814148	424.710114
4907.747588	-274.580353	181.976624	437.626526
4907.750917	-272.943909	182.970200	450.075378
4907.754244	-271.482758	185.366440	462.524261
4907.757584	-270.547638	186.243134	475.206879
4907.760911	-268.034485	187.178253	489.116882
4907.764253	-266.573364	188.639389	502.033325
4907.767582	-263.066620	189.106964	515.125122
4907.770923	-260.144348	189.925186	529.327332
4907.774246	-255.994751	189.808304	542.652893
4907.777579	-251.786682	189.749847	557.381104
4907.780985	-247.578613	190.217422	571.115723
4907.785515	-237.409119	189.165390	600.163086
4907.788918	-231.915253	188.054932	614.540649
4907.792275	-225.486267	186.710693	629.210449
4907.795148	-218.355957	183.905319	643.588013
4907.798532	-211.167145	182.210403	659.485107
4907.801861	-202.809479	180.106369	673.219788
4907.805217	-194.101105	176.307419	687.188232
4907.808446	-185.392761	173.618927	701.858032
4907.811755	-175.281708	170.053772	715.183533
4907.815117	-165.229095	166.137924	727.690857
4907.818005	-153.773834	161.696075	740.841064
4907.821335	-142.902985	156.085327	753.640564
4907.824671	-131.681458	151.643478	766.849243
4907.828022	-118.239052	145.448273	777.486267
4907.831386	-105.790176	140.246628	788.532471
4907.834698	-92.347755	134.226776	799.520203
4907.838029	-78.437752	128.090012	808.111633
4907.840903	-65.112213	121.661011	815.884827
4907.844248	-51.026878	114.413788	823.891907
4907.847574	-36.649330	108.043243	830.554626
4907.850909	-21.862652	101.497368	835.873169
4907.854241	-7.485094	94.951485	841.893066
4907.857607	7.360024	88.522499	845.808960
4907.860908	22.731153	81.509056	847.620728
4907.864236	37.868500	74.729393	850.075378
4907.867569	52.479836	68.417297	850.893677
4907.870901	67.032730	61.345413	850.309265
4907.874238	82.579193	55.208649	851.302795
4907.877570	96.430740	49.481003	849.666260
4907.880905	110.223846	43.052017	847.211609
4907.884236	123.841621	37.090591	843.062012
4907.887567	137.751602	31.655172	839.789062
4907.890900	151.661591	25.810638	834.119873
4907.894239	164.987152	20.609001	828.509094
4907.897625	177.143768	15.348919	820.385132
4907.900930	189.943298	9.562829	813.663940
4907.904229	202.158386	3.133840	804.838745
4907.907572	213.905914	-2.944477	797.533081
4907.910905	224.893646	-7.269433	788.181824
4907.914235	236.348907	-12.120398	777.603149
4907.917571	246.343079	-17.322035	767.375244
4907.920901	256.512573	-21.997662	756.913513
4907.924228	265.104034	-27.257746	744.756897
4907.927562	274.572174	-31.699591	731.197571
4907.930899	282.754547	-37.251900	718.982483
4907.934227	290.410858	-41.985970	706.124512
4907.937568	297.891876	-46.252480	692.272949
